# file created by code in harbour_fns_1896438.jl
# file created on 2026-03-09 at 15:39:56
# parameter: seed = 1896558
# parameter: T = 30000.0
# parameter: lower_interarrival = 7.8
# parameter: upper_interarrival = 55.8
# parameter: mean_process_times = [11.0, 16.0]
# parameter: max_queue = [9223372036854775807, 4]
# parameter: time_units = hours
id,arrival_time,start_service_times,start_service_times,completion_time
1,0.0,0.0,5.87265821749633,27.082636853385296
2,51.730957485833784,51.730957485833784,63.8306478500471,78.76173785820146
3,87.69144097997564,87.69144097997564,95.83835229185934,115.09111781805515
4,114.52813084299096,114.52813084299096,123.38689358428284,131.95580510968813
5,158.77460360025088,158.77460360025088,167.85432519904668,179.73956950387324
6,188.75842341734017,188.75842341734017,206.78547538501056,222.05903374939697
7,241.3671946660481,241.3671946660481,268.0424720522938,282.413706711406
8,267.30082600595347,268.0424720522938,309.7535101651618,325.85160468709216
9,306.3591426513651,309.7535101651618,325.85160468709216,343.8591804677593
10,361.88146667832626,361.88146667832626,398.5423017399237,416.7894128366329
11,384.9211695734326,398.5423017399237,416.7894128366329,433.91093970197323
12,427.30036023917086,427.30036023917086,433.91093970197323,453.93781346231435
13,481.7759673710318,481.7759673710318,487.4855034640327,502.2663412832143
14,537.3943418985408,537.3943418985408,556.351970171634,570.2719060681479
15,555.4933472349023,556.351970171634,570.2719060681479,591.8010644882651
16,606.0956653882916,606.0956653882916,652.0646422502133,666.9651232655237
17,622.9578993957444,652.0646422502133,669.7698333408413,685.4758462272218
18,648.9632296714587,669.7698333408413,685.4758462272218,699.2765900919308
19,683.5865959639955,683.5865959639955,699.2765900919308,715.4849684354637
20,714.043452110213,714.043452110213,721.883582438129,736.113164240169
21,748.6512050733683,748.6512050733683,751.9752587411841,764.0730576657082
22,796.5900723097968,796.5900723097968,798.4501980977411,815.7140069573443
23,846.7960565258386,846.7960565258386,860.9449712546543,876.1059121774147
24,898.1428856059417,898.1428856059417,907.3791256544148,925.7213637720046
25,906.6763451764913,907.3791256544148,928.0730450256079,941.1149187067265
26,958.2733206739188,958.2733206739188,964.4440611365375,985.7725586459392
27,1008.0935266826629,1008.0935266826629,1010.3748902405808,1023.6167414083493
28,1054.522864401531,1054.522864401531,1068.700888575183,1086.610185844381
29,1104.9696229795734,1104.9696229795734,1108.5281251025312,1123.807606966056
30,1132.1556901203683,1132.1556901203683,1133.4380603361765,1149.601553036656
31,1141.8303607664727,1141.8303607664727,1149.601553036656,1160.845255637028
32,1177.2903530455105,1177.2903530455105,1185.12730157767,1200.1180667508233
33,1201.2473791459233,1201.2473791459233,1202.1094848179027,1218.4042763563925
34,1244.0545591244763,1244.0545591244763,1249.8246182752944,1264.5103089651018
35,1283.3932080158265,1283.3932080158265,1286.326749374157,1302.8948274743495
36,1333.0593790846829,1333.0593790846829,1346.4341848388924,1359.5409299285373
37,1359.0126590524108,1359.0126590524108,1384.3608315384008,1400.7243234569291
38,1382.975176942765,1384.3608315384008,1415.1092224623758,1433.9473295981888
39,1406.288524476536,1415.1092224623758,1433.9473295981888,1444.1339581379461
40,1444.6521933648894,1444.6521933648894,1476.5242417998588,1501.388463457267
41,1489.048774642597,1489.048774642597,1501.388463457267,1521.7994165468438
42,1540.7787695812085,1540.7787695812085,1541.4960268355244,1558.2073822890093
43,1553.3053173295182,1553.3053173295182,1558.2073822890093,1573.409157661008
44,1592.3689187264827,1592.3689187264827,1607.6126989664624,1624.2257105872977
45,1607.112850733763,1607.6126989664624,1624.2257105872977,1638.1125639843035
46,1616.8137615607595,1616.8137615607595,1639.3574888266307,1655.6435944634761
47,1630.9301308545814,1639.3574888266307,1655.6435944634761,1676.0736656834094
48,1639.9700696280072,1650.648224104898,1676.0736656834094,1695.5426366420763
49,1648.181339833754,1675.6215544348747,1695.5426366420763,1707.232350309652
50,1656.5048471001835,1691.824205374908,1707.232350309652,1725.0958671039318
51,1701.0139690665749,1701.0139690665749,1725.0958671039318,1744.1377414654216
52,1713.4306965611165,1713.4306965611165,1744.1377414654216,1759.4693032807577
53,1727.4374077588993,1727.4374077588993,1759.4693032807577,1776.5043677184988
54,1769.7726293591609,1769.7726293591609,1776.5043677184988,1793.769967569067
55,1783.8318365787072,1783.8318365787072,1793.769967569067,1813.3594846343526
56,1805.573054736287,1805.573054736287,1820.6633206190386,1840.0124978729234
57,1844.6712454327576,1844.6712454327576,1846.3629383234347,1860.9311007897127
58,1858.959597531916,1858.959597531916,1861.7479039723344,1870.2222597138473
59,1901.242994168299,1901.242994168299,1911.6365737202982,1930.0414161947297
60,1923.8113709749641,1923.8113709749641,1930.0414161947297,1948.2922820044284
61,1954.0268468644667,1954.0268468644667,1957.7072309724074,1972.490466779985
62,2007.5184900383183,2007.5184900383183,2015.1012266404016,2029.3563382274144
63,2034.8553406476503,2034.8553406476503,2072.0181913749598,2084.7509267234745
64,2087.205761651184,2087.205761651184,2088.614261811838,2109.3167337793743
65,2098.921402597857,2098.921402597857,2135.1025128441606,2151.726782853513
66,2120.7628163784607,2135.1025128441606,2158.7677118583156,2172.676678242803
67,2164.009156314549,2164.009156314549,2172.676678242803,2185.825710622401
68,2203.74618792866,2203.74618792866,2212.935390716008,2227.2723403307223
69,2216.0327956428287,2216.0327956428287,2227.2723403307223,2247.5753772714243
70,2260.0009321534294,2260.0009321534294,2263.4777204554516,2281.8484521178
71,2305.949821117003,2305.949821117003,2313.3694488976357,2328.7610465378984
72,2338.0308616723537,2338.0308616723537,2358.551459613764,2374.962465628329
73,2361.149210196898,2361.149210196898,2374.962465628329,2389.990498864596
74,2391.4051806721727,2391.4051806721727,2445.059340493982,2462.863838443363
75,2433.252928518418,2445.059340493982,2462.863838443363,2474.9811829239543
76,2441.2738746288414,2458.102090506782,2512.5423441717653,2530.2196570817314
77,2475.858296347456,2512.5423441717653,2530.2196570817314,2547.3983888093353
78,2485.9890074009027,2515.4853734753174,2547.3983888093353,2562.192654958352
79,2502.5115290504373,2520.4960086472597,2562.192654958352,2578.1527972516114
80,2523.7480025033915,2523.7480025033915,2578.1527972516114,2593.060446388499
81,2552.520077520121,2552.520077520121,2593.060446388499,2607.9477206026977
82,2584.487488132316,2584.487488132316,2607.9477206026977,2621.0858379125316
83,2627.0660683136052,2627.0660683136052,2629.465826942127,2647.1198866631817
84,2666.161437555864,2666.161437555864,2671.6641531383734,2686.3514783242595
85,2713.0675934741794,2713.0675934741794,2713.663316693324,2728.1890076487466
86,2725.15887398656,2725.15887398656,2728.1890076487466,2744.9980635659567
87,2761.3316836202657,2761.3316836202657,2761.6093154998043,2776.6129182584004
88,2783.681445415332,2783.681445415332,2783.8729574333074,2799.9436133876784
89,2831.1662824545706,2831.1662824545706,2841.7470601372906,2857.390854346377
90,2843.738255895,2843.738255895,2857.390854346377,2878.51926002586
91,2877.5581846258146,2877.5581846258146,2890.6638486751976,2904.5354077816232
92,2927.94179232153,2927.94179232153,2937.318040142868,2954.5575898316342
93,2968.5300189776826,2968.5300189776826,2970.653363459553,2982.9345701403845
94,2998.3307980921727,2998.3307980921727,2999.595714258497,3016.9972322542244
95,3023.3477723839746,3023.3477723839746,3025.9634164662293,3037.377103394167
96,3044.3029132675974,3044.3029132675974,3074.7796568077874,3089.370367002109
97,3055.1690357196658,3074.7796568077874,3089.370367002109,3105.173630136296
98,3083.064276893702,3083.064276893702,3105.173630136296,3124.4019969168326
99,3138.774422794736,3138.774422794736,3144.7511746321047,3160.541890684909
100,3158.5272879032664,3158.5272879032664,3161.4482146146547,3173.4731021167336
101,3173.4768061886216,3173.4768061886216,3178.0390630505135,3192.32046443805
102,3210.667225931926,3210.667225931926,3217.316616163619,3231.1926378507874
103,3260.277829843342,3260.277829843342,3287.0763162206267,3301.6742574451446
104,3306.5816827166286,3306.5816827166286,3321.4013688482923,3336.415842341093
105,3317.1130346742666,3321.4013688482923,3336.415842341093,3348.6346703890435
106,3333.1711926704756,3333.1711926704756,3348.6346703890435,3362.018258209677
107,3374.5309499059686,3374.5309499059686,3382.2703059050978,3401.716409214513
108,3418.0551767933753,3418.0551767933753,3457.996413915501,3469.791971554038
109,3425.970295354094,3457.996413915501,3506.8819851719904,3521.1144279102846
110,3461.2837989815075,3506.8819851719904,3521.1144279102846,3543.98986806128
111,3510.763939608718,3512.9256650240063,3543.98986806128,3562.0322124040026
112,3565.994462548374,3565.994462548374,3575.3033893475963,3590.980143849139
113,3589.5202177003866,3589.5202177003866,3605.9685728988647,3616.6436170358993
114,3628.04268539455,3628.04268539455,3670.22206335228,3689.735010365096
115,3671.6792105451295,3671.6792105451295,3689.735010365096,3703.621332846048
116,3710.2801888644262,3710.2801888644262,3716.482261504801,3732.5224169304593
117,3740.50672121325,3740.50672121325,3749.0487903086096,3761.90704118068
118,3776.385620196376,3776.385620196376,3789.049916768658,3807.9288904342075
119,3828.0156438112995,3828.0156438112995,3844.387651447879,3859.8822070334
120,3857.0855430150677,3857.0855430150677,3859.8822070334,3874.890579159652
121,3909.559629322906,3909.559629322906,3916.9280955093323,3935.369563036732
122,3928.219911323884,3928.219911323884,3935.369563036732,3951.1812107393353
123,3952.833987199506,3952.833987199506,3959.269562871204,3974.771418399255
124,3996.6171359865307,3996.6171359865307,4016.45601885255,4028.694844316251
125,4006.362132836762,4016.45601885255,4032.2465777840907,4045.4835712060585
126,4054.270925757013,4054.270925757013,4055.18151308771,4070.81477904851
127,4106.283440827385,4106.283440827385,4111.82610815536,4127.924790829084
128,4161.955316604454,4161.955316604454,4186.370962519327,4206.464339867439
129,4178.1841603371095,4186.370962519327,4206.464339867439,4220.742958458113
130,4212.730300261674,4212.730300261674,4220.742958458113,4237.655935305727
131,4264.949066941066,4264.949066941066,4268.97404602,4286.813862176626
132,4302.725218181705,4302.725218181705,4310.471279120746,4325.017252512107
133,4321.016996225074,4321.016996225074,4325.017252512107,4345.545395832784
134,4370.110294119283,4370.110294119283,4373.533962982532,4388.484745145401
135,4422.979462913285,4422.979462913285,4426.785492598453,4446.122305480589
136,4469.266904106165,4469.266904106165,4476.678720708794,4492.123264756251
137,4522.328591697115,4522.328591697115,4522.568353545909,4540.346088918672
138,4553.880337282589,4553.880337282589,4582.94571642784,4600.089352845045
139,4570.641092871331,4582.94571642784,4600.089352845045,4621.252831577057
140,4606.931520885179,4606.931520885179,4621.252831577057,4634.289491907745
141,4641.301805886719,4641.301805886719,4641.693296850385,4661.225141377806
142,4670.932755096927,4670.932755096927,4671.818928138727,4691.872035034521
143,4719.53179721614,4719.53179721614,4724.5224482132735,4741.2563006029695
144,4769.67291675078,4769.67291675078,4770.091022254349,4787.843271651015
145,4784.6428368596535,4784.6428368596535,4789.927714334934,4814.896774977829
146,4809.580018843945,4809.580018843945,4818.285567088304,4836.217572750819
147,4851.320428843705,4851.320428843705,4860.200970523993,4879.197486685587
148,4867.550766445041,4867.550766445041,4879.197486685587,4895.310389535503
149,4877.6195717438995,4877.6195717438995,4895.310389535503,4909.176976286295
150,4887.258131842703,4887.258131842703,4909.176976286295,4929.4943345656675
151,4941.9370890836035,4941.9370890836035,4956.380291569441,4970.608061257992
152,4951.424797897857,4956.380291569441,4970.608061257992,4990.951519031583
153,4981.439561051382,4981.439561051382,4997.550794151819,5012.907046590722
154,5012.105216262052,5012.105216262052,5017.44159105106,5032.946041977208
155,5060.128944919324,5060.128944919324,5063.217366427515,5083.239298616079
156,5101.1168474581855,5101.1168474581855,5102.819224447322,5118.780963240435
157,5153.631595779105,5153.631595779105,5157.964167476792,5176.762482239553
158,5167.4445538267655,5167.4445538267655,5176.762482239553,5191.205009230962
159,5177.295276096677,5177.295276096677,5193.934350626596,5213.504016135233
160,5186.60757762823,5193.934350626596,5213.504016135233,5235.021568129267
161,5233.1651175017005,5233.1651175017005,5235.868046727345,5248.3244454507485
162,5241.4287269039405,5241.4287269039405,5248.3244454507485,5267.033024320241
163,5276.547482033006,5276.547482033006,5280.543042018221,5292.6005304068
164,5302.2686080999265,5302.2686080999265,5308.833067972406,5321.579306461743
165,5311.494624667777,5311.494624667777,5321.579306461743,5335.923459559667
166,5340.290913651584,5340.290913651584,5340.861635269432,5355.854205029031
167,5366.356014775223,5366.356014775223,5367.5282882832125,5384.390521201563
168,5410.138311815675,5410.138311815675,5422.548752422542,5439.305217535846
169,5457.337088504618,5457.337088504618,5470.744214955093,5486.642468177289
170,5512.216092982974,5512.216092982974,5531.102001641974,5546.1157763736355
171,5531.720559506818,5531.720559506818,5546.1157763736355,5562.162546338683
172,5559.020483334007,5559.020483334007,5566.479197264529,5581.77312617976
173,5571.117500899136,5571.117500899136,5581.77312617976,5600.5353968848995
174,5616.229970919572,5616.229970919572,5628.392902243263,5639.969831264607
175,5635.341847912252,5635.341847912252,5650.184042485581,5662.098040463014
176,5669.71434162324,5669.71434162324,5673.038513909587,5686.288812688535
177,5716.146846055593,5716.146846055593,5719.165028451173,5730.563841837638
178,5730.888410694916,5730.888410694916,5737.117366892538,5749.629661256695
179,5782.326956922599,5782.326956922599,5791.331880973418,5808.7185042255205
180,5829.945836069332,5829.945836069332,5831.693207308331,5850.311019616921
181,5880.865088722794,5880.865088722794,5890.449695954086,5904.239199634297
182,5917.492104942181,5917.492104942181,5922.756225298428,5941.230788315279
183,5951.8596884625185,5951.8596884625185,5963.697370337677,5981.647929861079
184,5988.925726237271,5988.925726237271,6006.964581162416,6020.956045122396
185,5999.550856444566,6006.964581162416,6020.956045122396,6042.946402668188
186,6055.039875888328,6055.039875888328,6055.744166456556,6068.126157669613
187,6091.2868318666915,6091.2868318666915,6094.928806540359,6111.512636843421
188,6142.151532726469,6142.151532726469,6150.52315079825,6166.059782733015
189,6154.156993446677,6154.156993446677,6166.059782733015,6182.173663822203
190,6180.16884047542,6180.16884047542,6185.730942536524,6205.057091083948
191,6212.747789810643,6212.747789810643,6236.21502629725,6248.752508263367
192,6256.354563194513,6256.354563194513,6270.155323204267,6290.100884383715
193,6294.8913725927,6294.8913725927,6306.127901136591,6322.918589475157
194,6305.084489973759,6306.127901136591,6322.918589475157,6339.528383578271
195,6316.950447986171,6316.950447986171,6339.528383578271,6354.320755006428
196,6365.623493273118,6365.623493273118,6368.033460617158,6388.9687118038455
197,6411.6385971368345,6411.6385971368345,6414.5165876745505,6432.240445938864
198,6447.072626870876,6447.072626870876,6457.552360528199,6474.9665418602835
199,6476.248155644424,6476.248155644424,6516.550053429374,6534.052787261209
200,6531.622662497928,6531.622662497928,6545.6502625612475,6563.443896657311
201,6549.081235884969,6549.081235884969,6566.370341665077,6581.868415908768
202,6591.969557334995,6591.969557334995,6605.235885369627,6623.14885758167
203,6615.985974889223,6615.985974889223,6623.14885758167,6640.328937907697
204,6641.403552831734,6641.403552831734,6657.829001191045,6671.248909912713
205,6654.558684600821,6657.829001191045,6672.95346647443,6687.633958295594
206,6680.7929857162335,6680.7929857162335,6698.229737450081,6718.394522349234
207,6732.841842039741,6732.841842039741,6742.089249850478,6755.922889348944
208,6754.832547607628,6754.832547607628,6770.763136659675,6789.182239133786
209,6762.8741122473875,6770.763136659675,6802.810581783658,6828.2009000190665
210,6788.134854534196,6802.810581783658,6828.2009000190665,6846.161121397412
211,6821.920687234519,6821.920687234519,6846.161121397412,6858.1852611182385
212,6868.185736892676,6868.185736892676,6868.8085798503735,6884.802306956299
213,6917.981681749474,6917.981681749474,6935.490296385414,6949.074550765058
214,6937.305821336502,6937.305821336502,6956.461063140543,6971.912917599165
215,6946.718791213956,6956.461063140543,6971.912917599165,6988.833628163023
216,6995.353559849203,6995.353559849203,7006.864015491906,7024.843986825017
217,7019.278302764755,7019.278302764755,7028.423067314116,7040.2842183567045
218,7027.728307159105,7028.423067314116,7040.2842183567045,7054.525434464035
219,7073.437754814998,7073.437754814998,7089.4027732054265,7104.632387108197
220,7103.7271888768255,7103.7271888768255,7104.632387108197,7117.130181817485
221,7134.111808501091,7134.111808501091,7144.779737651474,7160.193346729819
222,7177.868198141531,7177.868198141531,7222.593395102307,7240.94267242802
223,7216.125958290175,7222.593395102307,7240.94267242802,7256.293394677821
224,7239.281436025755,7239.281436025755,7256.293394677821,7272.516121815217
225,7265.971060136137,7265.971060136137,7272.516121815217,7285.646407333615
226,7286.40274606911,7286.40274606911,7295.735036800572,7310.589734345436
227,7313.279593387191,7313.279593387191,7335.378891127305,7354.218965712324
228,7346.493823476763,7346.493823476763,7354.218965712324,7369.8669349057145
229,7378.305686493873,7378.305686493873,7383.300592492894,7397.249630553902
230,7419.39617152383,7419.39617152383,7434.734552485134,7449.226178913409
231,7441.272363898235,7441.272363898235,7449.226178913409,7467.732908087257
232,7484.841215222547,7484.841215222547,7485.669691137485,7496.781558344286
233,7514.230713902318,7514.230713902318,7532.293376480099,7544.851848714556
234,7546.450758739848,7546.450758739848,7547.410604361056,7558.260349401925
235,7591.524167027045,7591.524167027045,7592.081959232226,7608.023197885881
236,7626.375444338328,7626.375444338328,7644.688830703513,7656.908163459706
237,7679.612768834297,7679.612768834297,7699.946896543173,7715.232225919466
238,7723.414604487692,7723.414604487692,7729.0385230814445,7748.181094718248
239,7733.207631315903,7733.207631315903,7748.181094718248,7762.162063851364
240,7781.437467635412,7781.437467635412,7782.485353078686,7795.22089918485
241,7811.430452844049,7811.430452844049,7812.648593121729,7825.886879831388
242,7856.733428029897,7856.733428029897,7885.757265309129,7898.813446033088
243,7896.142919178803,7896.142919178803,7936.295372308224,7949.121148229849
244,7948.040307680274,7948.040307680274,7952.356882113686,7970.656692207675
245,8000.529817923791,8000.529817923791,8018.573963722703,8038.743122241148
246,8021.4347455448415,8021.4347455448415,8038.743122241148,8051.927583944613
247,8066.794867009209,8066.794867009209,8072.804850225757,8088.21890749817
248,8098.034220559039,8098.034220559039,8101.0388646684205,8118.09465694502
249,8152.670620148799,8152.670620148799,8154.352143381289,8164.4177487094
250,8174.592652236858,8174.592652236858,8179.391765059423,8196.855468296619
251,8229.728276656833,8229.728276656833,8231.290887181836,8246.25334153103
252,8249.224152598217,8249.224152598217,8275.713317492637,8292.477168845613
253,8264.540352142212,8275.713317492637,8292.477168845613,8310.793685377084
254,8307.561081972113,8307.561081972113,8314.512382562483,8331.694836755745
255,8351.372598492046,8351.372598492046,8370.961974334303,8388.7233114562
256,8374.818515598334,8374.818515598334,8405.908780539288,8423.894027371534
