# file created by code in harbour_fns_1896438.jl
# file created on 2026-03-09 at 15:39:52
# parameter: seed = 1896496
# parameter: T = 30000.0
# parameter: lower_interarrival = 7.8
# parameter: upper_interarrival = 55.8
# parameter: mean_process_times = [11.0, 16.0]
# parameter: max_queue = [9223372036854775807, 4]
# parameter: time_units = hours
id,arrival_time,start_service_times,start_service_times,completion_time
1,0.0,0.0,8.967770703676834,22.392508719668328
2,42.70478733639514,42.70478733639514,58.061509845000224,76.11977884157633
3,64.87484256271577,64.87484256271577,76.11977884157633,93.05752675758634
4,107.97500530317119,107.97500530317119,113.6813718907985,131.54572271797292
5,132.29455932888493,132.29455932888493,170.6008787528865,181.38475931033184
6,159.24432694060278,170.6008787528865,181.38475931033184,202.1252452882463
7,199.45289047277987,199.45289047277987,202.1252452882463,218.55456687110606
8,234.7677861803907,234.7677861803907,243.11827564193555,260.8832991986063
9,279.9160082963523,279.9160082963523,280.3760908718334,297.0603685404581
10,326.3333778575853,326.3333778575853,334.7397629847547,352.16083850269547
11,336.539598289724,336.539598289724,352.16083850269547,366.9352763007158
12,382.4559948948398,382.4559948948398,409.6991901881831,424.8045893976888
13,437.0529766704873,437.0529766704873,451.8146440562253,471.44070787827104
14,454.76639612320116,454.76639612320116,471.44070787827104,490.69241570656055
15,500.53278818223384,500.53278818223384,507.18451487234705,523.6506978614267
16,527.9022525089408,527.9022525089408,539.8185032834998,556.7994306263085
17,580.4442750077538,580.4442750077538,613.4941605665166,630.8189144997897
18,610.5543467993774,613.4941605665166,630.8189144997897,646.1220916541256
19,641.4190792084287,641.4190792084287,646.1220916541256,659.162397815428
20,679.2642693910709,679.2642693910709,683.3970840976816,700.0255951096524
21,723.6122765669575,723.6122765669575,730.3047782903765,748.5490504449275
22,753.3346908915624,753.3346908915624,757.033474324061,767.8466565018163
23,801.7434507293309,801.7434507293309,884.2897116818757,898.5166947206445
24,825.3353353121233,884.2897116818757,898.5166947206445,914.096191249689
25,857.9424104449714,886.3991532277635,921.9676692176525,938.5060472576902
26,896.7519909606468,921.9676692176525,938.5060472576902,949.3304747586809
27,946.8664195703228,946.8664195703228,957.9407208829323,975.8178881709881
28,995.5781382339716,995.5781382339716,1005.6204909313295,1017.3898988750957
29,1038.75633952837,1038.75633952837,1040.2838258803156,1059.6374470252647
30,1064.1770902098187,1064.1770902098187,1079.5642575960903,1092.923582065051
31,1095.757968215422,1095.757968215422,1100.8992112268033,1115.9657542791756
32,1147.7503126894903,1147.7503126894903,1156.2903522984495,1174.6270041752825
33,1180.1627627931077,1180.1627627931077,1205.191684432545,1221.6043858108164
34,1210.160976190794,1210.160976190794,1221.6043858108164,1237.5371857708685
35,1218.2179475613975,1219.189541634346,1237.5371857708685,1252.6388345910661
36,1265.9445226197238,1265.9445226197238,1270.7598823335752,1286.6701428484564
37,1295.4170204215666,1295.4170204215666,1312.6334653987194,1331.5519488154423
38,1325.4652171475016,1325.4652171475016,1334.7651158429455,1352.6475219849185
39,1380.9088820522754,1380.9088820522754,1384.0217621812521,1398.0587955242952
40,1412.2173356903131,1412.2173356903131,1426.7652441484554,1446.3125715823153
41,1445.5489669609215,1445.5489669609215,1463.7434406820787,1478.944484909525
42,1501.1623687864355,1501.1623687864355,1507.8796591752707,1524.4506865032984
43,1510.1820734576872,1510.1820734576872,1535.830008967477,1553.272332896304
44,1563.4247036885704,1563.4247036885704,1579.110940722571,1591.4228926508308
45,1573.9978144299712,1579.110940722571,1595.4345151096145,1609.0535130892167
46,1586.7594323975745,1595.4345151096145,1614.3912620163105,1628.0624741852932
47,1633.786824675978,1633.786824675978,1636.4261407424574,1653.5766773247092
48,1667.029726912694,1667.029726912694,1671.4601844490737,1685.7695248928355
49,1684.7338335872353,1684.7338335872353,1686.319391029316,1706.8908509869416
50,1709.214654836532,1709.214654836532,1714.0383877864335,1734.9012493959651
51,1741.2596802103046,1741.2596802103046,1762.3171697954772,1778.1953305285467
52,1766.2771286303284,1766.2771286303284,1778.1953305285467,1789.3856096225243
53,1791.5646920072852,1791.5646920072852,1799.9725868240691,1816.5081268755855
54,1805.3997474854857,1805.3997474854857,1824.3800571244258,1844.048193329653
55,1823.4760730428807,1824.3800571244258,1844.048193329653,1858.8903087706851
56,1838.0903934943776,1842.1047110831762,1860.1962035007268,1880.0299811772577
57,1884.9289944838586,1884.9289944838586,1891.800050227235,1910.5271786425449
58,1936.5539463884907,1936.5539463884907,1938.9699877404776,1957.51837846446
59,1973.356968983898,1973.356968983898,1980.3176700042702,1994.5429583028492
60,2008.4676999339433,2008.4676999339433,2026.820346195974,2041.0418001284265
61,2024.944034236458,2026.820346195974,2041.0418001284265,2059.7175681244717
62,2049.6454481624305,2049.6454481624305,2062.84996130464,2082.796690093777
63,2068.4535392925595,2068.4535392925595,2082.796690093777,2095.571380586762
64,2087.582061722386,2087.582061722386,2099.1427742943165,2110.561702274132
65,2109.504757832536,2109.504757832536,2115.1644004786313,2135.5302147209804
66,2129.245040238782,2129.245040238782,2135.5302147209804,2149.626624140035
67,2180.4053824432453,2180.4053824432453,2191.157182738393,2209.550989880211
68,2214.437860205757,2214.437860205757,2214.678140874333,2231.515158855762
69,2267.2705168977564,2267.2705168977564,2270.385226280317,2289.3149425118163
70,2321.395491478755,2321.395491478755,2331.9609083784558,2344.180752062595
71,2352.1994169565646,2352.1994169565646,2352.546933141471,2364.0406307085213
72,2375.214511260052,2375.214511260052,2383.9888116451843,2399.794562202149
73,2398.8392982953997,2398.8392982953997,2413.614977228341,2428.715963630391
74,2445.6327643078967,2445.6327643078967,2461.1309610617,2476.475524039653
75,2459.761449989507,2461.1309610617,2479.190174413529,2493.9090451836973
76,2512.1257697956758,2512.1257697956758,2523.086818326533,2537.913924374062
77,2542.843541601914,2542.843541601914,2550.1655816898488,2564.444697798944
78,2570.9163250565325,2570.9163250565325,2597.399833612995,2615.609987431965
79,2590.3132979970605,2597.399833612995,2615.609987431965,2633.5548020120677
80,2598.158269384426,2610.3942915361436,2633.5548020120677,2646.77565022708
81,2610.2578856339446,2612.111681739927,2646.77565022708,2661.996745187575
82,2663.7762843229857,2663.7762843229857,2677.4997003283434,2693.6223535342756
83,2712.885799746571,2712.885799746571,2718.5940736979596,2734.453124365087
84,2752.830895315282,2752.830895315282,2754.042994709841,2764.595373053467
85,2804.0305963145074,2804.0305963145074,2805.5416694904848,2821.011082251172
86,2857.0415056918073,2857.0415056918073,2864.4162141079137,2882.0018620301275
87,2907.6058064847903,2907.6058064847903,2920.3662405295777,2935.971541010821
88,2960.991380734241,2960.991380734241,2992.7274098841594,3014.681082391455
89,2988.3801688196,2992.7274098841594,3014.681082391455,3027.403678235383
90,3043.015812991805,3043.015812991805,3058.9487621103194,3075.156032045512
91,3070.5325956632805,3070.5325956632805,3075.491606888154,3091.3287117900486
92,3081.215796446329,3081.215796446329,3091.3287117900486,3101.6672092337544
93,3094.755424880991,3094.755424880991,3102.8088136399365,3110.368760386405
94,3132.505775786541,3132.505775786541,3147.1295819648176,3155.7104729526027
95,3154.103396838036,3154.103396838036,3169.0821559461797,3186.4902327872874
96,3173.375122409801,3173.375122409801,3188.8073677631064,3209.156026975814
97,3215.7284391141993,3215.7284391141993,3235.548420301312,3257.288208886959
98,3223.6084027220722,3235.548420301312,3257.288208886959,3274.9321167273088
99,3263.063883961275,3263.063883961275,3274.9321167273088,3295.447266996634
100,3276.919766151727,3276.919766151727,3295.447266996634,3315.5968549050153
101,3310.7560441810424,3310.7560441810424,3331.7360210252573,3350.991832594872
102,3331.2865622097283,3331.7360210252573,3350.991832594872,3367.8009870798023
103,3385.1291132404117,3385.1291132404117,3386.81058644711,3405.8739629746474
104,3398.2715385917536,3398.2715385917536,3405.8739629746474,3421.17987891061
105,3450.089057391162,3450.089057391162,3456.466773600834,3477.7576213166803
106,3478.0074477260114,3478.0074477260114,3512.6157278652995,3533.547276977629
107,3492.7437379755243,3512.6157278652995,3533.547276977629,3548.979742355816
108,3522.8132089482647,3522.8132089482647,3548.979742355816,3567.0510665441916
109,3557.510202867414,3557.510202867414,3589.419899705764,3611.4054759413334
110,3571.174553516808,3589.419899705764,3611.9252723497593,3627.2621885526814
111,3621.1735707467074,3621.1735707467074,3646.7060685770834,3663.535021310081
112,3674.1812480104372,3674.1812480104372,3685.690588386554,3701.244217019105
113,3692.2979936344973,3692.2979936344973,3704.9704608264733,3721.8838165906072
114,3731.5440663252916,3731.5440663252916,3735.476922082423,3748.4894294105666
115,3741.827624053796,3741.827624053796,3748.4894294105666,3762.6565600835006
116,3760.0655807944513,3760.0655807944513,3762.6565600835006,3776.7611811583615
117,3815.2787284019105,3815.2787284019105,3826.969592449861,3843.6903506247518
118,3862.2767250075262,3862.2767250075262,3867.6432071326194,3890.0306403612376
119,3896.390006870764,3896.390006870764,3932.3387800428154,3945.1256035898623
120,3918.159728023736,3932.3387800428154,3945.1256035898623,3965.1336495882983
121,3955.100150258542,3955.100150258542,3980.2140847038145,4001.851686786995
122,3978.636400315615,3980.2140847038145,4001.851686786995,4015.0291211482336
123,4022.4620764348374,4022.4620764348374,4026.700689161228,4044.5756585225845
124,4051.7384357106375,4051.7384357106375,4054.1028978587583,4070.9307367635265
125,4093.8309416992347,4093.8309416992347,4109.275249816589,4125.7844140757115
126,4113.064644148109,4113.064644148109,4133.4469196159625,4152.667884169339
127,4148.590683754669,4148.590683754669,4158.631523833374,4173.861740610524
128,4178.209162256464,4178.209162256464,4188.175586309545,4207.689188735712
129,4221.933736560629,4221.933736560629,4235.092327517493,4247.1713702575535
130,4237.667410685703,4237.667410685703,4262.563306772736,4279.989865108293
131,4282.039971237253,4282.039971237253,4287.971134201994,4306.09252361157
132,4325.856546484703,4325.856546484703,4344.536716325485,4359.414941472769
133,4344.039271672516,4344.536716325485,4359.414941472769,4370.255115375929
134,4390.66647733468,4390.66647733468,4403.288530007517,4419.377801299138
135,4409.779097618707,4409.779097618707,4421.294030151275,4437.712028465634
136,4422.1781511840845,4422.1781511840845,4437.712028465634,4452.3685911214125
137,4444.101442003008,4444.101442003008,4452.3685911214125,4473.857305403256
138,4467.180723219661,4467.180723219661,4483.428272477637,4498.177970335918
139,4496.765346795345,4496.765346795345,4499.530635889259,4515.669457860514
140,4505.883104726977,4505.883104726977,4544.61570484462,4559.241852852607
141,4561.480524991217,4561.480524991217,4569.367191910981,4587.423863315564
142,4584.203679597441,4584.203679597441,4587.423863315564,4597.96598588401
143,4613.44483661023,4613.44483661023,4650.712817360139,4665.551415234165
144,4628.491402958448,4650.712817360139,4665.551415234165,4684.373797598551
145,4665.535022407002,4665.535022407002,4684.373797598551,4706.0123261306035
146,4674.480143447389,4674.480143447389,4706.0123261306035,4723.402317064068
147,4701.147966542701,4701.147966542701,4723.402317064068,4743.65545668502
148,4748.169027624186,4748.169027624186,4761.072894023292,4775.732985409841
149,4758.000708907604,4761.072894023292,4775.732985409841,4790.997113354489
150,4777.909478190739,4777.909478190739,4790.997113354489,4806.993075820632
151,4807.230675839542,4807.230675839542,4807.242119126851,4825.5942970331325
152,4832.982666229612,4832.982666229612,4845.231491861292,4859.257110742576
153,4869.276979781758,4869.276979781758,4869.412270323406,4884.495721870902
154,4914.1575157773395,4914.1575157773395,4924.781387595652,4941.188628323497
155,4965.363458659559,4965.363458659559,4981.336092875941,4999.300971512773
156,5014.176327830204,5014.176327830204,5033.823612411702,5050.255159483019
157,5063.941136814541,5063.941136814541,5066.883324863586,5083.280637218169
158,5108.986582744319,5108.986582744319,5119.905978707775,5137.790498058463
159,5131.413943756425,5131.413943756425,5137.790498058463,5153.053611612387
160,5146.258735117409,5146.258735117409,5166.388756737621,5177.258882765167
161,5173.273017576214,5173.273017576214,5177.258882765167,5189.13294748552
162,5215.538060581081,5215.538060581081,5239.172879105879,5252.923716222833
163,5254.099010609748,5254.099010609748,5271.209770287928,5287.607495481016
164,5268.931299380522,5271.209770287928,5287.607495481016,5299.953387996395
165,5287.8021104638465,5287.8021104638465,5299.953387996395,5313.594565790144
166,5303.7401712459605,5303.7401712459605,5313.594565790144,5327.993053707389
167,5348.043439834813,5348.043439834813,5368.562329344086,5385.798650734961
168,5372.157705334109,5372.157705334109,5396.797644269646,5410.398832627737
169,5403.828964201218,5403.828964201218,5410.398832627737,5427.086085062906
170,5415.919211973587,5415.919211973587,5427.086085062906,5444.203498312814
171,5445.969495943543,5445.969495943543,5481.246116684761,5495.802053764313
172,5475.258146240176,5481.246116684761,5504.602571937729,5520.463554200935
173,5493.401851055255,5504.602571937729,5534.277437796296,5556.251494924916
174,5524.956705320338,5534.277437796296,5556.251494924916,5568.199390186844
175,5558.539579299766,5558.539579299766,5568.199390186844,5583.75430900483
176,5599.928587544499,5599.928587544499,5600.591518345023,5619.08252404782
177,5614.967474319957,5614.967474319957,5619.08252404782,5636.639039956035
178,5632.2786036628995,5632.2786036628995,5637.807354663373,5654.97619233087
179,5668.699727888476,5668.699727888476,5687.20397111616,5701.4391526192
180,5717.368335248361,5717.368335248361,5740.376219360752,5756.875717382432
181,5770.148755142684,5770.148755142684,5818.546628905059,5834.301429770507
182,5803.565367137272,5818.546628905059,5837.145703501623,5851.65391465225
183,5854.7520506303,5854.7520506303,5890.970535929365,5904.686274614409
184,5884.714235579401,5890.970535929365,5904.686274614409,5922.115032958508
185,5921.465548290655,5921.465548290655,5928.265301792595,5944.8998222062855
186,5972.192955203506,5972.192955203506,5988.317633966937,6003.858711553708
187,6008.403991110255,6008.403991110255,6019.074136932426,6030.136554556833
188,6026.714252585823,6026.714252585823,6030.136554556833,6044.906976005891
189,6048.090309753732,6048.090309753732,6061.72631041828,6074.521697820869
190,6069.584113688728,6069.584113688728,6086.037955092903,6104.088614250324
191,6102.673785843806,6102.673785843806,6115.517682876113,6126.93721375096
192,6151.319511614354,6151.319511614354,6155.407592713609,6171.364727439403
193,6166.238614687014,6166.238614687014,6188.042757727588,6209.930984910018
194,6198.234800956654,6198.234800956654,6214.944064092577,6228.914311980525
195,6212.255813807579,6214.944064092577,6237.041989948005,6249.327560731504
196,6262.313747496963,6262.313747496963,6270.690694674894,6287.204799831025
197,6276.269361850369,6276.269361850369,6289.5896082835625,6305.359262084739
198,6320.516853805669,6320.516853805669,6340.795081978414,6352.726756239888
199,6367.325641304014,6367.325641304014,6371.3541415423915,6388.941711311479
200,6381.21032033548,6381.21032033548,6388.941711311479,6402.856883897011
201,6402.637522777965,6402.637522777965,6413.995771976467,6426.69588204971
202,6423.44914926924,6423.44914926924,6439.429435605072,6455.7678717107165
203,6457.111498959023,6457.111498959023,6461.216199893007,6473.1831287173145
204,6478.07922930135,6478.07922930135,6518.176980229964,6537.702571366086
205,6526.865221906964,6526.865221906964,6554.18006856919,6573.21684260126
206,6567.117792647991,6567.117792647991,6573.21684260126,6589.257399571378
207,6582.3074519422,6582.3074519422,6589.257399571378,6608.094251165583
208,6633.566046782289,6633.566046782289,6655.80305142776,6674.766782943582
209,6657.512045175604,6657.512045175604,6674.766782943582,6686.682603493083
210,6697.790666422451,6697.790666422451,6700.6161998850475,6719.253315203314
211,6724.796139910035,6724.796139910035,6735.33676256159,6748.209347219516
212,6758.967033970929,6758.967033970929,6767.224260981861,6788.745493319241
213,6812.401508433546,6812.401508433546,6816.2814983632115,6830.028124566034
214,6846.798375544321,6846.798375544321,6868.578925694799,6886.776989410858
215,6882.93993828926,6882.93993828926,6886.776989410858,6897.723953577033
216,6902.8228682911695,6902.8228682911695,6920.257868958385,6940.9676402569
217,6943.4363957951955,6943.4363957951955,6946.2510686502565,6965.719533378154
218,6987.381821870304,6987.381821870304,6993.172350747737,7009.955331735953
219,7025.5729587768965,7025.5729587768965,7026.8066562956465,7043.800042876074
220,7066.297849301094,7066.297849301094,7094.5689741770875,7109.1566842287475
221,7102.882245918046,7102.882245918046,7109.1566842287475,7124.803820304225
222,7121.931927436296,7121.931927436296,7124.803820304225,7139.792344055459
223,7155.88096081425,7155.88096081425,7162.583444233358,7175.427734507629
224,7193.24199429369,7193.24199429369,7194.429370260414,7207.417455975894
225,7239.40332862224,7239.40332862224,7247.154785696684,7262.294308404629
226,7254.717627896945,7254.717627896945,7281.532671421856,7300.487628647677
227,7279.755658872406,7281.532671421856,7300.487628647677,7315.037852843633
228,7303.774921467002,7303.774921467002,7315.037852843633,7333.2830802406415
229,7348.630815166262,7348.630815166262,7351.7680520314425,7366.441001649037
230,7357.395872844481,7357.395872844481,7366.587601050022,7384.042275587368
231,7408.561901138038,7408.561901138038,7438.334673699747,7455.791999248941
232,7453.52775357316,7453.52775357316,7458.638226073013,7475.583669446288
233,7506.308845737171,7506.308845737171,7508.58402141287,7525.958362080767
234,7547.114284569783,7547.114284569783,7564.485757154992,7580.493035274255
235,7564.688675583685,7564.688675583685,7580.493035274255,7596.071936371138
236,7586.8098181908745,7586.8098181908745,7596.071936371138,7609.350219341807
237,7622.5519496231345,7622.5519496231345,7641.039044604896,7655.908661684364
238,7632.477257811751,7641.039044604896,7667.31674311201,7682.823408639417
239,7673.349169379492,7673.349169379492,7682.823408639417,7698.944162187097
240,7713.489180549999,7713.489180549999,7725.011189415847,7742.949405096666
241,7726.956219437928,7726.956219437928,7742.949405096666,7760.232585207915
242,7744.122572850991,7744.122572850991,7760.232585207915,7771.754847484873
243,7791.3287716741115,7791.3287716741115,7794.896900219053,7814.405916103177
244,7835.061009436448,7835.061009436448,7838.962411636016,7859.663163366891
245,7852.9657901556,7852.9657901556,7859.663163366891,7879.572073358382
246,7873.4891358188515,7873.4891358188515,7879.592694092369,7896.40848665806
247,7888.6466472780285,7888.6466472780285,7904.39584275638,7921.1919290356145
248,7921.453544755494,7921.453544755494,7929.931232654025,7946.214531542581
249,7962.497707745763,7962.497707745763,7964.3712692958325,7983.413148304243
250,8012.301735793351,8012.301735793351,8016.0631549167265,8030.088982790413
251,8065.776934337344,8065.776934337344,8090.187689261823,8101.721601148273
252,8089.987393485991,8090.187689261823,8101.721601148273,8120.04047225624
253,8135.029172783182,8135.029172783182,8166.69302945444,8185.954528153944
254,8174.344469655322,8174.344469655322,8207.65648489411,8226.933685574291
255,8182.7589062992465,8207.65648489411,8226.933685574291,8238.735520135531
256,8231.307753882062,8231.307753882062,8238.735520135531,8254.110806776853
