# file created by code in harbour_fns_1896438.jl
# file created on 2026-03-09 at 15:39:47
# parameter: seed = 1896441
# parameter: T = 30000.0
# parameter: lower_interarrival = 7.8
# parameter: upper_interarrival = 55.8
# parameter: mean_process_times = [11.0, 16.0]
# parameter: max_queue = [9223372036854775807, 4]
# parameter: time_units = hours
id,arrival_time,start_service_times,start_service_times,completion_time
1,0.0,0.0,7.166044205558502,18.888888783765417
2,20.762217042538293,20.762217042538293,23.497350611232513,39.14111861853538
3,61.66656977321105,61.66656977321105,99.13417822754919,112.5229202679427
4,91.32303909849239,99.13417822754919,112.5229202679427,128.30666115307167
5,124.95310001305114,124.95310001305114,138.75176808852984,161.17508779206204
6,174.51242939447508,174.51242939447508,180.00871691523213,195.5233709568867
7,199.71218368199746,199.71218368199746,219.58390038475835,235.40914076082137
8,234.95128841437372,234.95128841437372,235.47763758703334,247.1696407334733
9,242.9212008671135,242.9212008671135,259.5129968980855,276.5517024744232
10,290.5519172732651,290.5519172732651,312.637608216006,332.6980000995425
11,336.845389992912,336.845389992912,339.1812234920242,355.8046347103049
12,380.91942858171296,380.91942858171296,383.16051595320386,400.26880850944883
13,407.31456083610277,407.31456083610277,408.1484131515354,424.9355267973463
14,447.0116195142842,447.0116195142842,447.0333899240745,464.13782238490836
15,496.44038520924465,496.44038520924465,502.06360196436907,513.2316668748355
16,531.3954813701545,531.3954813701545,541.8254652264939,559.3792928340679
17,549.8662891012755,549.8662891012755,559.3792928340679,576.8437026029364
18,602.2051819727957,602.2051819727957,622.4013121822137,644.0255650954041
19,615.846337876284,622.4013121822137,644.0255650954041,663.8314488782817
20,627.396024688713,630.7204328478718,663.8314488782817,688.4811898400337
21,655.9561038861992,655.9561038861992,688.4811898400337,706.1258035531185
22,684.1704656056377,684.1704656056377,706.1258035531185,724.2810934708151
23,702.3782846052379,702.3782846052379,724.2810934708151,740.8003894106752
24,732.9346679784092,732.9346679784092,740.8003894106752,756.1751465780007
25,757.7343844427164,757.7343844427164,760.023492101045,773.0878886184831
26,765.7670215629554,765.7670215629554,784.0955528196158,799.536654597568
27,805.1939773139079,805.1939773139079,810.3419006329107,827.0641618969926
28,846.1125417669525,846.1125417669525,857.9817668665619,874.6177023352332
29,859.4837443164491,859.4837443164491,876.0598711762883,893.3682378339278
30,892.2381558316074,892.2381558316074,900.5183446847284,917.4147030687401
31,945.8259757082425,945.8259757082425,953.3026595212348,966.6363637473584
32,959.0078366204174,959.0078366204174,971.5571152175235,992.1162377398551
33,979.3781426234568,979.3781426234568,992.1162377398551,1006.8580890338419
34,1017.8340279584992,1017.8340279584992,1020.5010577315606,1037.3056172004772
35,1037.2898583893918,1037.2898583893918,1038.3936179097482,1053.8407835122105
36,1070.463491240006,1070.463491240006,1091.1221888236164,1107.3821585387902
37,1102.2836822817894,1102.2836822817894,1111.3577084469182,1124.1849205261094
38,1117.6014328134816,1117.6014328134816,1148.0688439440146,1164.713565128209
39,1142.3935397525172,1148.0688439440146,1170.2216897144879,1183.6270393277698
40,1197.211905952206,1197.211905952206,1253.7067927117464,1267.479905714352
41,1219.1794686681294,1253.7067927117464,1267.479905714352,1289.395364863342
42,1260.5483161789932,1261.2534560702782,1289.395364863342,1305.2080190969004
43,1313.1575854859616,1313.1575854859616,1315.3976590770721,1329.8431573946866
44,1326.3332251662887,1326.3332251662887,1340.1128090465907,1357.7315884044847
45,1361.0773815589255,1361.0773815589255,1362.8997342601092,1377.641701321396
46,1389.9833034778821,1389.9833034778821,1394.4768598277171,1407.4376926896537
47,1445.168333137885,1445.168333137885,1447.703506744184,1464.6478143390125
48,1482.9204557398255,1482.9204557398255,1483.0462008802829,1495.2281279493502
49,1508.1718683409176,1508.1718683409176,1512.7935838635435,1522.438438592505
50,1546.6275841153722,1546.6275841153722,1551.0281577092494,1566.2662025177642
51,1573.1466570413575,1573.1466570413575,1574.8334286151087,1591.2749964302163
52,1601.2291831139564,1601.2291831139564,1624.8056541587623,1639.2122563027915
53,1632.476880972582,1632.476880972582,1639.2122563027915,1653.2314749168772
54,1670.4151204387038,1670.4151204387038,1672.9774510516413,1686.6785763092703
55,1726.11953484419,1726.11953484419,1728.1223555995848,1740.2915862826821
56,1767.0170979694972,1767.0170979694972,1772.8159115071642,1788.2249144347984
57,1796.0425269302702,1796.0425269302702,1803.0029558466606,1816.634593696586
58,1841.3047851139518,1841.3047851139518,1871.9499902612447,1889.1914971664487
59,1856.2139275117197,1871.9499902612447,1889.1914971664487,1900.5923143438151
60,1869.2573827747274,1874.9398274608707,1900.5923143438151,1919.1375058635153
61,1887.6234278842228,1887.6234278842228,1919.1375058635153,1938.1174823059914
62,1935.2666527144097,1935.2666527144097,1939.5222133459465,1957.1846928701937
63,1977.4766507581492,1977.4766507581492,2000.0570059707572,2012.6927508090719
64,1991.9083276790416,2000.0570059707572,2014.0542627225054,2026.293036543649
65,2022.0776732954344,2022.0776732954344,2031.2474675444287,2048.377205303573
66,2044.5992101276536,2044.5992101276536,2050.3231070415195,2067.3091059724075
67,2100.3135361510163,2100.3135361510163,2104.7001310610954,2120.782189251363
68,2120.5066419611326,2120.5066419611326,2129.931060245453,2143.5958415800164
69,2158.456426384663,2158.456426384663,2159.74950810057,2177.3890500196203
70,2176.31765583406,2176.31765583406,2186.220021864101,2200.7289498636833
71,2216.577394671589,2216.577394671589,2217.983249946951,2232.3214221355174
72,2255.5670065482573,2255.5670065482573,2263.0344634046164,2269.7843100422356
73,2301.2122414648966,2301.2122414648966,2305.651424925562,2322.6813961039184
74,2334.803202727218,2334.803202727218,2339.210747508083,2360.2681293805417
75,2373.085031457031,2373.085031457031,2396.3439934140956,2408.8398670314245
76,2387.187356708781,2396.3439934140956,2408.8398670314245,2419.038022729215
77,2396.078002297043,2403.1128528095114,2419.038022729215,2430.112225663775
78,2419.4130090823674,2419.4130090823674,2430.112225663775,2444.9756722270313
79,2441.2097433791682,2441.2097433791682,2444.9756722270313,2466.2995957957323
80,2451.7729283835492,2451.7729283835492,2468.174527112427,2481.3008777321666
81,2487.2845868336512,2487.2845868336512,2558.560609684534,2569.782202692681
82,2513.2817659699,2558.560609684534,2569.782202692681,2584.9497605894544
83,2544.3282688736367,2559.3285245478783,2584.9497605894544,2604.582819326848
84,2575.021156435423,2575.021156435423,2604.582819326848,2623.1706458673225
85,2610.674808716101,2610.674808716101,2626.3887265516582,2640.1199686663076
86,2648.1884187234837,2648.1884187234837,2657.458983025121,2675.0061472986204
87,2681.5496854045477,2681.5496854045477,2684.0126285661768,2699.2418255731986
88,2704.151565405662,2704.151565405662,2708.9853989194376,2721.9643985296493
89,2757.013783705249,2757.013783705249,2797.0967921336087,2816.844506492594
90,2801.0886387302057,2801.0886387302057,2816.844506492594,2832.800408794323
91,2822.966006026413,2822.966006026413,2865.139724920434,2882.4037461327684
92,2866.7044586194306,2866.7044586194306,2882.4037461327684,2899.5231116754057
93,2882.08749417834,2882.08749417834,2899.5231116754057,2916.919691955658
94,2924.3786751729285,2924.3786751729285,2936.492243952714,2956.331534340284
95,2958.415112968045,2958.415112968045,2959.7496237092423,2977.630261784852
96,2978.37803747693,2978.37803747693,3005.540228937096,3024.4762668565686
97,3018.460667212582,3018.460667212582,3026.1776379699622,3041.9152174547326
98,3050.5952999282604,3050.5952999282604,3054.3254375375145,3068.369072168107
99,3096.381277917191,3096.381277917191,3098.980021547009,3115.9033536569455
100,3125.2945202355036,3125.2945202355036,3126.1992250131,3140.3766654519227
101,3134.1428673883183,3134.1428673883183,3141.7702620390664,3153.617866001466
102,3154.162607722018,3154.162607722018,3156.164639603567,3172.417734420233
103,3169.6295731748605,3169.6295731748605,3180.4045496579615,3197.3057757390866
104,3203.104175462937,3203.104175462937,3207.8126438485647,3229.2327320751315
105,3227.1274832012887,3227.1274832012887,3238.689089468981,3254.409177229578
106,3244.7479688627286,3244.7479688627286,3276.928742305088,3295.2036949785747
107,3264.5578121787635,3276.928742305088,3295.2036949785747,3311.483856604374
108,3296.4083408739248,3296.4083408739248,3311.483856604374,3329.6530775369483
109,3305.1847887303074,3305.1847887303074,3333.6791459406286,3352.853237228944
110,3339.3860352045276,3339.3860352045276,3352.853237228944,3373.2775303204985
111,3360.2820125931194,3360.2820125931194,3373.2775303204985,3391.181936329186
112,3397.6004433133503,3397.6004433133503,3399.375566511233,3414.1365882974756
113,3419.681972049543,3419.681972049543,3419.8365827427783,3432.9952323752364
114,3432.894349000401,3432.894349000401,3488.9951130814984,3503.6191029921133
115,3477.197367243874,3488.9951130814984,3518.8707851003983,3535.248612320724
116,3492.921127241343,3518.8707851003983,3535.248612320724,3551.287631423901
117,3504.0290612565886,3530.056865962048,3551.287631423901,3568.225240237101
118,3534.568192849897,3546.572101923054,3568.225240237101,3585.564040505844
119,3580.2392038043818,3580.2392038043818,3585.564040505844,3600.6536263826374
120,3601.285968008474,3601.285968008474,3604.614907986904,3619.732229586419
121,3625.2767058572445,3625.2767058572445,3631.4118068471143,3653.6096031373672
122,3636.1305316552243,3636.1305316552243,3653.6096031373672,3675.6635422302697
123,3685.828287332357,3685.828287332357,3695.7427090753085,3714.470288275668
124,3704.745196588859,3704.745196588859,3717.0564346748106,3731.9595467022823
125,3759.804919885315,3759.804919885315,3762.751802412679,3780.9666716878546
126,3775.286505451396,3775.286505451396,3783.185524873449,3801.9581085031173
127,3819.72858314448,3819.72858314448,3823.189436719325,3843.4173639600167
128,3847.625925278468,3847.625925278468,3848.058902955933,3864.4593712598576
129,3883.9141654965683,3883.9141654965683,3884.6385288804504,3897.5668903150186
130,3918.396187964959,3918.396187964959,3920.313797766111,3940.4762118159297
131,3953.2655102257936,3953.2655102257936,3959.362527795605,3979.6886691691097
132,3982.225080726906,3982.225080726906,3993.3882648413696,4009.3582459857976
133,4028.2130110219327,4028.2130110219327,4033.2982331515077,4052.8374283965554
134,4042.812405858132,4042.812405858132,4059.0557913809425,4078.4895494149146
135,4053.606977713938,4059.0557913809425,4078.4895494149146,4095.904638396203
136,4095.127563036455,4095.127563036455,4098.480649081871,4115.026002778577
137,4116.616148980803,4116.616148980803,4188.05949139944,4205.482335277645
138,4130.242490098068,4188.05949139944,4212.902877082932,4232.12876670466
139,4146.9106742528,4212.902877082932,4232.12876670466,4249.703295857745
140,4193.511749247341,4221.475640249347,4249.703295857745,4270.151890149527
141,4217.541896191792,4238.075581579495,4270.151890149527,4285.916961248334
142,4258.285996817547,4258.285996817547,4285.916961248334,4303.3458923408425
143,4293.580642848831,4293.580642848831,4303.3458923408425,4322.412070574546
144,4339.700556190323,4339.700556190323,4349.428946071457,4364.619128086898
145,4362.519858922237,4362.519858922237,4373.415237495724,4384.159011446686
146,4399.494043389547,4399.494043389547,4426.807007301432,4443.391824341217
147,4448.102778817723,4448.102778817723,4463.7308149047385,4485.986449965187
148,4473.984221644921,4473.984221644921,4485.986449965187,4503.192270063096
149,4484.041346075396,4484.041346075396,4503.192270063096,4521.748702963292
150,4512.005938768749,4512.005938768749,4521.748702963292,4541.347805020625
151,4521.560813465056,4521.560813465056,4541.347805020625,4557.347764691976
152,4561.624737803081,4561.624737803081,4569.087191496332,4582.769046922742
153,4608.347848527701,4608.347848527701,4617.9252387697225,4636.077234900871
154,4655.701379550448,4655.701379550448,4665.391633951839,4680.612346755174
155,4709.271118954948,4709.271118954948,4712.630713983689,4728.248822942107
156,4721.386225329285,4721.386225329285,4731.39248102585,4746.806565755264
157,4734.323391611182,4734.323391611182,4746.806565755264,4760.2669340659
158,4743.734300623133,4745.6820293764595,4760.2669340659,4772.142230420715
159,4785.130409268122,4785.130409268122,4814.235797532482,4825.956227964763
160,4819.685941135423,4819.685941135423,4826.60452968647,4838.264320815715
161,4851.6867681522335,4851.6867681522335,4865.341360357112,4880.472590223857
162,4890.309393507686,4890.309393507686,4902.923296791442,4920.8636919833125
163,4935.532106782863,4935.532106782863,4940.698603590238,4955.7356445652185
164,4952.971186832352,4952.971186832352,4955.7356445652185,4967.038634588228
165,5002.331419748426,5002.331419748426,5007.76084597068,5021.324766158979
166,5045.533093767383,5045.533093767383,5046.990148693272,5073.232896156392
167,5085.444482776774,5085.444482776774,5089.543530104728,5109.170465790782
168,5096.927757177663,5096.927757177663,5109.170465790782,5125.344366049889
169,5110.655974610526,5110.655974610526,5125.344366049889,5141.086748390819
170,5148.084087780481,5148.084087780481,5153.897879420711,5167.502610867957
171,5202.678710804858,5202.678710804858,5237.406737035918,5255.528923391741
172,5220.441898754357,5237.406737035918,5255.528923391741,5270.837715947273
173,5268.662569855304,5268.662569855304,5270.837715947273,5288.559764132785
174,5319.888544120934,5319.888544120934,5337.499826080191,5349.672875269433
175,5333.932734833645,5337.499826080191,5357.368073858775,5371.335852273852
176,5361.10756688799,5361.10756688799,5371.335852273852,5386.387713162331
177,5391.121166551246,5391.121166551246,5399.349972306587,5414.178774234305
178,5430.398197218027,5430.398197218027,5455.642390985079,5470.2951526298275
179,5456.294030748788,5456.294030748788,5470.2951526298275,5488.523101021227
180,5466.118778301268,5467.509029304474,5488.523101021227,5504.191923112971
181,5475.271355580443,5475.271355580443,5504.191923112971,5522.5170808524845
182,5513.692169830137,5513.692169830137,5552.158278095367,5566.029159680722
183,5533.906226436674,5552.158278095367,5566.029159680722,5583.867473306426
184,5542.604097226997,5557.359503118737,5583.867473306426,5597.91866812134
185,5571.105723972503,5571.105723972503,5599.761665495741,5621.290527382675
186,5611.297437614764,5611.297437614764,5621.290527382675,5634.0532073153
187,5650.652947184106,5650.652947184106,5662.429942119992,5678.045957092013
188,5705.06783316649,5705.06783316649,5705.992111876336,5726.163875835381
189,5732.647866578041,5732.647866578041,5745.305300929465,5761.983756477887
190,5740.642212202347,5745.305300929465,5761.983756477887,5784.059962093084
191,5758.378892813043,5758.378892813043,5784.059962093084,5805.102592811441
192,5767.020965433126,5767.020965433126,5805.102592811441,5823.683528002333
193,5783.003878597877,5783.003878597877,5823.683528002333,5840.698977843376
194,5797.180206623516,5797.180206623516,5840.698977843376,5857.515945598708
195,5835.117269856972,5835.117269856972,5857.515945598708,5870.274844622008
196,5844.295246585039,5844.295246585039,5870.274844622008,5886.4300898039555
197,5854.119399154423,5858.5401903221045,5886.4300898039555,5899.4236230705
198,5907.733672112452,5907.733672112452,5908.5710732521065,5928.452528704061
199,5941.328987753399,5941.328987753399,5949.08257169388,5963.532759071933
200,5960.85739339023,5960.85739339023,5963.532759071933,5981.0123759072685
201,5980.665500160029,5980.665500160029,5985.277281058028,6003.376029425654
202,6006.626660615226,6006.626660615226,6050.823598857615,6060.597512783156
203,6032.937268086422,6050.823598857615,6062.198416442846,6075.82576938176
204,6043.247115897771,6062.198416442846,6075.82576938176,6096.002135278994
205,6071.770162471271,6071.770162471271,6096.002135278994,6113.35123533044
206,6110.780560348809,6110.780560348809,6113.35123533044,6132.0666855708205
207,6119.099379543271,6119.099379543271,6132.0666855708205,6148.067426583344
208,6162.57350465345,6162.57350465345,6163.601201935187,6180.3130296655945
209,6180.649390316989,6180.649390316989,6180.810909255934,6195.576070104208
210,6200.391056936993,6200.391056936993,6219.185598105248,6237.53883314823
211,6251.659354341804,6251.659354341804,6253.296950830003,6269.097867201183
212,6265.740911519261,6265.740911519261,6281.671847002782,6294.583770363244
213,6285.637778852714,6285.637778852714,6294.583770363244,6311.019560169533
214,6321.490190109132,6321.490190109132,6348.269950115967,6362.4753943678725
215,6342.635401079579,6348.269950115967,6362.4753943678725,6378.014316111644
216,6378.15832967961,6378.15832967961,6383.378158557839,6399.747585148729
217,6394.75292014894,6394.75292014894,6402.530423960375,6415.741217629656
218,6430.04652916,6430.04652916,6434.718241198276,6451.308461137005
219,6445.964163320172,6445.964163320172,6451.308461137005,6462.832172341365
220,6462.49997501128,6462.49997501128,6506.851044432984,6526.5794517917775
221,6516.92273803404,6516.92273803404,6526.5794517917775,6546.813343365955
222,6571.049513792834,6571.049513792834,6574.641238597068,6584.701678426726
223,6593.306290630176,6593.306290630176,6598.569965181287,6611.530510983597
224,6625.4153565398865,6625.4153565398865,6627.687577272587,6644.587608380541
225,6642.383587004835,6642.383587004835,6655.4422242123455,6671.464903785209
226,6675.080732515069,6675.080732515069,6676.199360409731,6689.261989118568
227,6729.698950161619,6729.698950161619,6740.180043440724,6761.596459365007
228,6739.67454849827,6740.180043440724,6761.596459365007,6779.770774261695
229,6771.539866473183,6771.539866473183,6779.770774261695,6791.894831112185
230,6824.688813727277,6824.688813727277,6833.813108842466,6849.122542443031
231,6877.087489728442,6877.087489728442,6884.466401504831,6902.273412458027
232,6911.909511596215,6911.909511596215,6917.721391022522,6930.010214729583
233,6954.911670908335,6954.911670908335,6960.744789537706,6980.490093867305
234,6995.5340510652895,6995.5340510652895,6998.198000915134,7017.860521013856
235,7018.877455049328,7018.877455049328,7019.815339436328,7033.132562765293
236,7074.417818443971,7074.417818443971,7094.527415292822,7111.8278394019335
237,7092.647180998236,7094.527415292822,7118.962319863991,7139.248491512815
238,7129.151001517157,7129.151001517157,7149.966628632602,7162.583827828564
239,7139.936459891565,7149.966628632602,7162.583827828564,7176.194740046765
240,7159.646610914349,7159.646610914349,7176.194740046765,7191.92794410766
241,7175.853057916071,7175.853057916071,7212.525017893348,7235.961202256834
242,7230.749884514706,7230.749884514706,7238.0065150499095,7251.773162089692
243,7244.859118804892,7244.859118804892,7251.773162089692,7271.504527589749
244,7277.179106453741,7277.179106453741,7283.597765693993,7298.942898059212
245,7329.451922294914,7329.451922294914,7345.2359627268925,7366.562924595359
246,7368.298163024415,7368.298163024415,7392.380689095988,7401.251316327777
247,7417.620930155483,7417.620930155483,7453.0710892319385,7469.831989639488
248,7446.22657195554,7453.0710892319385,7469.831989639488,7487.969297040054
249,7459.603338354324,7463.989314238235,7487.969297040054,7504.564440944794
250,7477.541062330913,7482.2721694738275,7504.564440944794,7523.647801584609
251,7510.578974324711,7510.578974324711,7523.647801584609,7540.212181967927
252,7548.814218853005,7548.814218853005,7559.656784213506,7577.352361954864
253,7562.944397362356,7562.944397362356,7577.352361954864,7590.033891320962
254,7584.321912339697,7584.321912339697,7597.9603993741475,7613.377149489511
255,7602.917255367678,7602.917255367678,7613.377149489511,7627.680223652329
256,7644.637104286232,7644.637104286232,7660.0860242253575,7672.40750577848
