# file created by code in harbour_fns_1896438.jl
# file created on 2026-03-09 at 15:39:55
# parameter: seed = 1896539
# parameter: T = 30000.0
# parameter: lower_interarrival = 7.8
# parameter: upper_interarrival = 55.8
# parameter: mean_process_times = [11.0, 16.0]
# parameter: max_queue = [9223372036854775807, 4]
# parameter: time_units = hours
id,arrival_time,start_service_times,start_service_times,completion_time
1,0.0,0.0,6.3790043611607805,19.18368014498087
2,31.932615020683237,31.932615020683237,50.068342960858246,70.7657923824824
3,48.1831285617831,50.068342960858246,70.7657923824824,91.16646635515376
4,97.65020668924365,97.65020668924365,150.00471405499252,166.0786722598218
5,130.4870441901004,150.00471405499252,166.0786722598218,182.9815316989214
6,160.50747901665207,163.4705563302305,182.9815316989214,195.92433244584993
7,182.1483537482456,182.1483537482456,197.21324279300148,210.91288714173996
8,215.87851942178975,215.87851942178975,223.64053856467572,234.0221408213075
9,263.9654541769955,263.9654541769955,264.442505468014,277.0406916967651
10,285.2307319116278,285.2307319116278,286.15224798283157,298.2394341587038
11,317.62874403495744,317.62874403495744,320.79712686128124,335.39204926362544
12,336.31553111917503,336.31553111917503,367.1056365365627,389.2334346570515
13,357.9489004674986,367.1056365365627,389.2334346570515,398.99667215717136
14,377.1770468269252,381.84569569697305,398.99667215717136,414.45324030600267
15,431.6257351912021,431.6257351912021,471.6431507586941,486.58744563217806
16,472.3105293485628,472.3105293485628,488.8943916767233,504.0545999467551
17,481.25891679795495,488.8943916767233,504.0545999467551,516.7896535360499
18,533.07982187247,533.07982187247,538.9883081526159,550.0180641511171
19,555.3179732013741,555.3179732013741,567.5754389136267,592.3283856074556
20,594.3706139499861,594.3706139499861,597.7391032841005,613.2145742841541
21,614.8859128406452,614.8859128406452,620.0408040333988,629.6168745492225
22,654.6124384126831,654.6124384126831,667.7796228289847,680.6281458989259
23,692.1810094253123,692.1810094253123,695.5650185819795,712.5249102014601
24,712.5647467899287,712.5647467899287,721.1724299342948,739.2839623835923
25,764.4717869953341,764.4717869953341,794.4342062806594,811.8195703392295
26,815.6869742533822,815.6869742533822,832.7522282000667,848.0048111192336
27,862.5692162674359,862.5692162674359,890.6463680513768,905.1123607906777
28,917.9196151052703,917.9196151052703,919.7660893819161,939.3439393849777
29,964.0889901362177,964.0889901362177,975.3983544407888,992.1807834759791
30,1013.4745223105156,1013.4745223105156,1016.7384672769771,1038.9947468913008
31,1034.6400048753326,1034.6400048753326,1038.9947468913008,1052.8633403038134
32,1058.9575604455156,1058.9575604455156,1102.0060320641928,1111.9638340248796
33,1085.663778984489,1102.0060320641928,1111.9638340248796,1127.2921089761423
34,1098.2230498495505,1104.1502551877209,1127.2921089761423,1144.0928748879712
35,1118.6398665652205,1124.81187818228,1144.0928748879712,1164.9003308419146
36,1130.437203397089,1136.0153992938638,1164.9003308419146,1178.512738931412
37,1145.8560501204327,1158.6350220610077,1178.512738931412,1191.9581992331211
38,1157.748050234594,1166.9734876046878,1221.7461214802931,1237.9624669426814
39,1212.2482582034093,1221.7461214802931,1237.9624669426814,1252.743814904526
40,1239.8603648476649,1239.8603648476649,1252.743814904526,1266.8414241905418
41,1259.5934791956845,1259.5934791956845,1266.8414241905418,1285.7277721893063
42,1301.3207504596824,1301.3207504596824,1333.0859935771446,1350.9445140190765
43,1344.57558159791,1344.57558159791,1350.9445140190765,1363.8853048444491
44,1359.401530085202,1359.401530085202,1369.6010241387153,1386.9883622388536
45,1410.298464068191,1410.298464068191,1413.7497272783826,1428.822401780781
46,1452.3069210508363,1452.3069210508363,1454.439622695767,1471.149501479432
47,1483.113789998661,1483.113789998661,1503.847063719128,1516.499710236996
48,1500.2021373870343,1503.847063719128,1516.499710236996,1529.706270311112
49,1547.7874412462722,1547.7874412462722,1576.8446735760854,1589.3164489321784
50,1596.347004583572,1596.347004583572,1603.777675282004,1617.8147689058032
51,1615.8154440512365,1615.8154440512365,1633.2750614081308,1653.8751941802425
52,1652.434432208832,1652.434432208832,1653.8751941802425,1673.1036430973656
53,1699.903947230989,1699.903947230989,1731.4588133692757,1752.640591185272
54,1734.302581678716,1734.302581678716,1752.8859931682339,1771.0822844983759
55,1776.0889665214627,1776.0889665214627,1816.1826514171867,1831.9946091296817
56,1821.3686332655298,1821.3686332655298,1831.9946091296817,1849.934066791264
57,1868.1615611145462,1868.1615611145462,1896.9793581269737,1914.0156361488027
58,1917.4456965454451,1917.4456965454451,1919.737693212553,1931.7640763933603
59,1959.0341971942212,1959.0341971942212,1973.000321114688,1985.0623654861256
60,1971.767381682807,1973.000321114688,1997.084874068522,2013.247425837213
61,2013.5974957547508,2013.5974957547508,2016.539276086368,2030.149849891571
62,2052.043841788477,2052.043841788477,2063.103820257671,2080.0884701337673
63,2065.5511602323313,2065.5511602323313,2080.0884701337673,2103.3670562779303
64,2115.164610424765,2115.164610424765,2117.1998149266324,2133.9783033646527
65,2149.586017472963,2149.586017472963,2154.903020460152,2170.582116208316
66,2186.32174574045,2186.32174574045,2213.5229918135033,2228.1684036909433
67,2218.7575147301945,2218.7575147301945,2228.1684036909433,2244.0662759264546
68,2227.63913263178,2227.63913263178,2244.0662759264546,2259.8029784978125
69,2270.0746872607283,2270.0746872607283,2275.692815356341,2293.1828123452324
70,2307.1193894485723,2307.1193894485723,2310.1241295882965,2322.9740146049326
71,2324.199388484492,2324.199388484492,2332.436898816663,2348.470891151128
72,2354.1039463018187,2354.1039463018187,2354.34181443872,2373.0664598499748
73,2408.3603686459983,2408.3603686459983,2446.554404129572,2462.781208316699
74,2453.0932667211227,2453.0932667211227,2462.781208316699,2483.4253656280025
75,2486.039519025051,2486.039519025051,2490.167748886515,2511.508372792166
76,2507.6500241309823,2507.6500241309823,2518.6860616704143,2532.6679871442707
77,2527.2024978435056,2527.2024978435056,2532.6679871442707,2552.716530017064
78,2575.0414266936295,2575.0414266936295,2578.4467641933397,2593.2437983664613
79,2602.7744626842127,2602.7744626842127,2606.5317105180757,2624.6356999338946
80,2658.0853590956394,2658.0853590956394,2676.6009839385774,2694.3509361111087
81,2675.935047943833,2676.6009839385774,2694.3509361111087,2712.9116909849845
82,2719.982388834647,2719.982388834647,2723.3821078812184,2735.562642608165
83,2765.8817279229183,2765.8817279229183,2784.210525027233,2795.7137724711465
84,2787.4161205068062,2787.4161205068062,2795.7137724711465,2816.2816902372374
85,2821.805677431258,2821.805677431258,2823.0746492920493,2839.765453259368
86,2859.085768849442,2859.085768849442,2879.324436121002,2895.306664881916
87,2907.379881209266,2907.379881209266,2928.0856166841413,2940.1423243329536
88,2952.7264183304383,2952.7264183304383,2957.670401877269,2975.831676640222
89,2970.6792539140365,2970.6792539140365,2985.201291719554,2998.1066106637954
90,3015.0901562655476,3015.0901562655476,3021.00999411035,3041.9517927372826
91,3044.292522176405,3044.292522176405,3045.4138130371184,3063.1225634981283
92,3067.23913780751,3067.23913780751,3072.26938428315,3082.8000428658615
93,3114.434052235347,3114.434052235347,3119.5690309016686,3137.466848347936
94,3138.7442755234,3138.7442755234,3167.863252918266,3185.8930433221813
95,3172.420989762473,3172.420989762473,3189.1943162656944,3208.783594575836
96,3226.687959852264,3226.687959852264,3230.9672560216036,3249.0132052444415
97,3282.3915013869105,3282.3915013869105,3297.530649030393,3317.502456749464
98,3329.7565814076424,3329.7565814076424,3356.6064298990514,3370.6803570962225
99,3361.3326873564693,3361.3326873564693,3370.6803570962225,3382.7359172086176
100,3391.8692662517456,3391.8692662517456,3399.915057786132,3417.212661043864
101,3422.725798300113,3422.725798300113,3425.5626574457747,3442.751990362523
102,3454.996310481191,3454.996310481191,3463.412438032504,3478.877514484462
103,3469.663745825823,3469.663745825823,3492.799133349217,3509.3548775372738
104,3479.5269378441926,3492.799133349217,3509.3548775372738,3528.85724291025
105,3498.5611454179507,3498.582584765111,3528.85724291025,3545.664349113465
106,3545.9562848758546,3545.9562848758546,3563.7731068090848,3576.016388267516
107,3592.242086799784,3592.242086799784,3608.2179722011224,3626.2037869805877
108,3637.7562130910364,3637.7562130910364,3654.915897475346,3675.503139553945
109,3646.051219348056,3654.915897475346,3675.503139553945,3687.8028922446333
110,3688.96067063879,3688.96067063879,3689.3697226025247,3705.5390835623593
111,3700.608114057727,3700.608114057727,3713.8088085056193,3728.949102322436
112,3741.765504030574,3741.765504030574,3745.875087079397,3758.440592847851
113,3764.0616854144805,3764.0616854144805,3801.8473949956897,3819.5863609564576
114,3797.300245019983,3801.8473949956897,3819.5863609564576,3837.6737071713073
115,3827.3911954781474,3827.3911954781474,3837.6737071713073,3854.5489779770287
116,3848.104798233683,3848.104798233683,3885.3421334138325,3906.1594984401468
117,3860.2278686799496,3885.3421334138325,3906.1594984401468,3921.8616460749668
118,3909.272478314076,3909.272478314076,3927.804761992319,3941.271160437472
119,3919.362492461277,3927.804761992319,3941.271160437472,3964.828425883851
120,3953.865490212294,3953.865490212294,3964.828425883851,3981.137897866224
121,3964.557848665234,3964.557848665234,3981.137897866224,3999.149936429388
122,3990.8613386490756,3990.8613386490756,3999.149936429388,4015.5888045145944
123,4006.5219702534773,4006.5219702534773,4015.5888045145944,4028.436212085275
124,4020.1918557462286,4020.1918557462286,4028.436212085275,4040.793895269169
125,4060.9118839711978,4060.9118839711978,4097.125799668158,4121.031926837747
126,4099.138176162189,4099.138176162189,4144.684818676002,4163.594297949714
127,4123.196483554806,4144.684818676002,4163.594297949714,4172.278930939816
128,4142.0497485401775,4151.655841815893,4172.278930939816,4190.951903203328
129,4169.234343082741,4169.234343082741,4190.951903203328,4206.9539869930295
130,4222.565079159245,4222.565079159245,4223.822691768643,4236.7109421977975
131,4246.128445562988,4246.128445562988,4256.510498363003,4269.329831204892
132,4288.270044227091,4288.270044227091,4295.473598020783,4307.584406393548
133,4329.203942536173,4329.203942536173,4329.457932707355,4341.352497197576
134,4373.459643930512,4373.459643930512,4381.592913947868,4399.05225488837
135,4415.684893505888,4415.684893505888,4415.960589216359,4429.681384487949
136,4424.962282641997,4424.962282641997,4429.681384487949,4446.649672258475
137,4435.986508313925,4435.986508313925,4446.649672258475,4468.444214756837
138,4455.5494204685865,4455.5494204685865,4484.148099437114,4499.29318105186
139,4467.292761789012,4484.148099437114,4499.29318105186,4519.050487643508
140,4485.696677048181,4490.442357680558,4519.050487643508,4536.40556565715
141,4540.750560828329,4540.750560828329,4542.167093476277,4553.356692417537
142,4581.170895960585,4581.170895960585,4605.652770028598,4619.102261499139
143,4614.17802040578,4614.17802040578,4619.102261499139,4632.516405631681
144,4666.824506428439,4666.824506428439,4671.830797637323,4687.388071238743
145,4711.731567566147,4711.731567566147,4757.096564200534,4774.884223752058
146,4735.272768409289,4757.096564200534,4774.884223752058,4791.959085547234
147,4770.727279664866,4770.727279664866,4791.959085547234,4807.604194523338
148,4821.905964714921,4821.905964714921,4826.8815449118765,4845.796082453095
149,4839.8574179388115,4839.8574179388115,4853.989078005354,4875.250134330843
150,4892.272806512763,4892.272806512763,4896.0342972253375,4914.031924764322
151,4934.500646734628,4934.500646734628,4954.549909140286,4968.3016155165315
152,4953.107068102815,4954.549909140286,5013.992840210412,5028.851293558266
153,4982.687379962538,5013.992840210412,5028.851293558266,5044.128944078192
154,5028.635132088873,5028.635132088873,5044.590370536803,5053.872059002303
155,5036.590006009679,5044.590370536803,5053.872059002303,5074.9437101462945
156,5047.930300126192,5049.248856087245,5084.35235635253,5100.1190409658575
157,5087.8184584435,5087.8184584435,5100.1190409658575,5115.361597689797
158,5112.717267465473,5112.717267465473,5117.652427025707,5130.2689047343765
159,5139.063586120727,5139.063586120727,5144.589906727539,5162.673796864818
160,5185.077804951266,5185.077804951266,5189.083628289709,5208.022323236002
161,5234.555322514316,5234.555322514316,5247.846485264118,5261.824400815971
162,5279.854577860457,5279.854577860457,5285.563013566144,5299.360019032062
163,5312.41862956178,5312.41862956178,5326.956660389172,5340.033601369538
164,5342.733741756422,5342.733741756422,5344.82770657958,5357.212994462083
165,5366.124308434158,5366.124308434158,5370.482486311478,5387.486395457366
166,5388.661465045962,5388.661465045962,5400.994365737148,5415.5564081340235
167,5417.321948713553,5417.321948713553,5419.74617039372,5438.54128300718
168,5443.7555859511585,5443.7555859511585,5456.296229766454,5470.420389989292
169,5488.3786039520555,5488.3786039520555,5488.504238181023,5503.345287775822
170,5528.890119860719,5528.890119860719,5533.595187015064,5548.260706028724
171,5556.5338427072975,5556.5338427072975,5568.919564774291,5584.501760239328
172,5604.361223637418,5604.361223637418,5607.171098898657,5623.118985104438
173,5625.9210227347785,5625.9210227347785,5635.050988496111,5655.1513881822775
174,5636.248648768926,5636.248648768926,5657.600243639956,5674.007229781497
175,5670.290800292477,5670.290800292477,5692.845835648742,5707.859156737217
176,5716.8435438263605,5716.8435438263605,5723.0893680106465,5741.689284957592
177,5740.166252916416,5740.166252916416,5760.50389110305,5772.931763367661
178,5757.255102655145,5760.50389110305,5772.931763367661,5790.960015390258
179,5780.554678965147,5780.554678965147,5790.960015390258,5804.368706257136
180,5813.653300994634,5813.653300994634,5817.6556655117565,5839.032600770234
181,5846.873759699588,5846.873759699588,5865.636531858743,5879.803699555142
182,5897.1987973377745,5897.1987973377745,5901.27815813487,5922.907671099342
183,5920.9448215008715,5920.9448215008715,5934.129909326179,5947.089464269072
184,5958.453328903228,5958.453328903228,5966.600843934656,5983.079195715289
185,5995.39707235832,5995.39707235832,5996.7748515680605,6010.531432295365
186,6033.561018030426,6033.561018030426,6043.239686307338,6057.6370581002275
187,6067.0706727459265,6067.0706727459265,6078.7054276503,6097.968652269177
188,6112.995834764423,6112.995834764423,6120.420419394269,6136.970343993473
189,6149.714314804787,6149.714314804787,6159.22331743725,6177.060546130245
190,6185.169662974284,6185.169662974284,6204.183672124956,6216.368830027393
191,6199.692672798867,6204.183672124956,6216.368830027393,6232.501316192864
192,6208.532054854302,6208.532054854302,6232.501316192864,6247.748289963441
193,6231.534212840647,6231.534212840647,6247.748289963441,6266.107942573681
194,6239.47017553808,6239.47017553808,6266.107942573681,6277.578002039358
195,6250.863693046269,6250.863693046269,6277.578002039358,6296.022224216496
196,6259.443001588735,6259.443001588735,6296.022224216496,6309.431748297887
197,6285.844819270969,6285.844819270969,6309.431748297887,6325.066215745049
198,6338.585071241184,6338.585071241184,6339.643827964665,6356.170170953378
199,6361.686532514373,6361.686532514373,6362.9310525078245,6374.8309683599955
200,6381.095286192311,6381.095286192311,6381.5540349926505,6398.439272236695
201,6395.105036604849,6395.105036604849,6440.967074809728,6453.810830072286
202,6445.877335413154,6445.877335413154,6493.90755161966,6511.136720453487
203,6474.243534582521,6493.90755161966,6511.136720453487,6522.872558742866
204,6483.887323130291,6496.271835975904,6523.179657592211,6545.986738904533
205,6537.2988334751435,6537.2988334751435,6545.986738904533,6559.191975965981
206,6585.335957087123,6585.335957087123,6604.267528130187,6622.225039631141
207,6598.820406852997,6604.267528130187,6631.500298856998,6649.432708074592
208,6619.184941005861,6631.500298856998,6649.432708074592,6660.081714800705
209,6673.2758667138805,6673.2758667138805,6697.182920043325,6713.6246932001595
210,6711.154551832379,6711.154551832379,6723.438093813013,6749.995718883839
211,6752.758542104708,6752.758542104708,6766.195346602461,6779.179741589063
212,6778.5983989342685,6778.5983989342685,6783.1669462373575,6796.419520866055
213,6788.807074275682,6788.807074275682,6796.419520866055,6811.975963595336
214,6800.475055623257,6800.475055623257,6811.975963595336,6832.129739745879
215,6826.723096545777,6826.723096545777,6832.129739745879,6851.603204797688
216,6841.925072962803,6841.925072962803,6851.603204797688,6868.679577248088
217,6897.091176445986,6897.091176445986,6912.0724218981295,6927.6096755759245
218,6930.903635571854,6930.903635571854,6936.441327500332,6949.449689015191
219,6982.4006742167985,6982.4006742167985,6999.875029503771,7018.572590950765
220,7002.44459828531,7002.44459828531,7018.572590950765,7031.916591819242
221,7013.268488083392,7016.031187018921,7031.916591819242,7048.396024273611
222,7029.035168427541,7029.035168427541,7048.396024273611,7059.567127817567
223,7050.70334622127,7050.70334622127,7059.567127817567,7076.144811574354
224,7062.832551163841,7062.832551163841,7076.144811574354,7091.730373462594
225,7078.777250654694,7078.777250654694,7102.831238373064,7121.157084600469
226,7088.452493228838,7102.831238373064,7121.157084600469,7141.993841951705
227,7143.304603062337,7143.304603062337,7145.293187628692,7163.617245013143
228,7169.665647654652,7169.665647654652,7172.103053349775,7191.585110405751
229,7224.531847084046,7224.531847084046,7229.287656940134,7247.911331848572
230,7263.049038961489,7263.049038961489,7279.082478277072,7292.436322656602
231,7300.535453465538,7300.535453465538,7337.03029570986,7349.786893116467
232,7329.3494882354935,7337.03029570986,7349.786893116467,7365.782310743313
233,7374.128608405487,7374.128608405487,7381.001279353086,7391.31568023148
234,7420.484694656492,7420.484694656492,7422.037951238397,7438.442836261445
235,7447.629959026205,7447.629959026205,7452.631996361781,7473.310393303952
236,7476.196266730752,7476.196266730752,7478.450562945274,7494.240773876011
237,7529.914986612979,7529.914986612979,7532.192856785433,7542.281778226456
238,7560.470484318022,7560.470484318022,7561.964118161687,7578.411004039037
239,7586.402374129887,7586.402374129887,7606.057523645231,7618.691794915051
240,7618.107052468815,7618.107052468815,7633.694678299038,7649.457292140462
241,7644.04355344475,7644.04355344475,7657.022782633926,7673.767971642065
242,7667.704950655795,7667.704950655795,7673.767971642065,7691.438998750231
243,7708.617150462647,7708.617150462647,7748.298429424875,7765.187415308913
244,7757.341975200648,7757.341975200648,7766.537045394762,7783.887347340073
245,7805.735755444679,7805.735755444679,7810.326067742684,7827.621681112951
246,7848.651544797552,7848.651544797552,7857.311426776942,7875.696697767367
247,7885.036581474137,7885.036581474137,7905.653337741983,7923.3192681954815
248,7924.625165047798,7924.625165047798,7957.917462592388,7972.892077675577
249,7976.304662221883,7976.304662221883,7976.313407415902,7992.214763433276
250,7984.896027304873,7984.896027304873,7992.214763433276,8012.135546009013
251,8029.378825833786,8029.378825833786,8033.1320551378685,8050.147075957354
252,8077.019963284436,8077.019963284436,8096.591106559041,8116.347661521425
253,8100.969184501157,8100.969184501157,8119.169891216856,8131.691951141479
254,8143.52157734683,8143.52157734683,8157.081000718189,8170.23822946372
255,8171.477150703514,8171.477150703514,8188.985821850893,8201.127826012467
256,8212.951860973364,8212.951860973364,8216.880442818347,8232.798745011376
