# file created by code in harbour_fns_1896438.jl
# file created on 2026-03-09 at 15:39:49
# parameter: seed = 1896465
# parameter: T = 30000.0
# parameter: lower_interarrival = 7.8
# parameter: upper_interarrival = 55.8
# parameter: mean_process_times = [11.0, 16.0]
# parameter: max_queue = [9223372036854775807, 4]
# parameter: time_units = hours
id,arrival_time,start_service_times,start_service_times,completion_time
1,0.0,0.0,28.055526293868013,44.37611746829932
2,38.19170226167583,38.19170226167583,44.37611746829932,57.539727148288364
3,53.46654335408584,53.46654335408584,57.539727148288364,72.95481744721174
4,104.69844253326133,104.69844253326133,116.35114950996105,131.51481792468556
5,113.0115762433168,116.35114950996105,131.51481792468556,149.04548682200794
6,129.28321061728064,129.28321061728064,149.04548682200794,163.3369061677858
7,174.60414600700165,174.60414600700165,174.72464227344227,187.721951847755
8,220.34905043766207,220.34905043766207,220.84150689631912,235.44512845592283
9,244.54222528889866,244.54222528889866,246.85370912690297,264.0597527092475
10,286.4071176172676,286.4071176172676,309.52826574675305,328.3638482136496
11,334.40797115691095,334.40797115691095,343.0311116475932,358.7271785886376
12,365.8266563255965,365.8266563255965,370.1662525173665,391.7878764231065
13,398.1707652730054,398.1707652730054,410.0198525383124,421.78490952857896
14,418.75018574795627,418.75018574795627,432.88575557083556,448.66962857366093
15,472.7351516159127,472.7351516159127,487.8682015556262,498.35082101544907
16,519.5153189547669,519.5153189547669,534.3987206851373,546.11500785602
17,561.0589396882324,561.0589396882324,571.000052237462,590.5810157339127
18,591.9960761298437,591.9960761298437,596.343643496276,613.3033372206852
19,606.1711563266686,606.1711563266686,647.4459833836803,662.4201279572886
20,646.9259309986676,647.4459833836803,664.9557841250687,685.755144241956
21,691.7558768078583,691.7558768078583,699.8785463215991,717.4644293287707
22,744.7219899672854,744.7219899672854,745.4617271766075,762.8374400270528
23,782.5031015034477,782.5031015034477,825.797013741925,842.1549684696322
24,824.970597703633,825.797013741925,842.1549684696322,854.1642883107119
25,834.68501003777,840.6722192350139,854.1642883107119,870.1793496906992
26,888.6326510260084,888.6326510260084,896.6359348016816,911.8456624840578
27,933.8852961256374,933.8852961256374,944.2784891075563,959.5174463566841
28,970.3868020221945,970.3868020221945,971.3912833620135,986.5314831339891
29,1013.6304608055698,1013.6304608055698,1020.3760923144116,1033.9265511887143
30,1032.0375164470438,1032.0375164470438,1057.713952376364,1074.9006828853817
31,1079.6982454578003,1079.6982454578003,1092.809511906613,1108.5914303327975
32,1095.8148708563365,1095.8148708563365,1108.5914303327975,1125.5958380040968
33,1149.478380835003,1149.478380835003,1165.9492646545225,1183.3058904627621
34,1182.1180212403958,1182.1180212403958,1200.8865912931208,1215.0291263412462
35,1218.4622564757237,1218.4622564757237,1219.4342101748355,1235.8955391598784
36,1252.7499004715214,1252.7499004715214,1256.0639952549793,1267.6723927437051
37,1283.3846239573738,1283.3846239573738,1300.5472969630955,1319.0823821541449
38,1301.229516579988,1301.229516579988,1319.0823821541449,1343.8041934816363
39,1323.0890757168702,1323.0890757168702,1343.8041934816363,1364.5331919304915
40,1373.3013501603878,1373.3013501603878,1384.7641370762296,1403.1425769942791
41,1427.0211771444401,1427.0211771444401,1436.2991155845516,1450.0868427228188
42,1453.295559390934,1453.295559390934,1457.8416967784378,1475.882058374003
43,1471.892910809828,1471.892910809828,1477.755771579113,1488.4721272104111
44,1484.2250554576704,1484.2250554576704,1496.174430125159,1518.4937517440908
45,1492.7127555661314,1496.174430125159,1518.4937517440908,1536.8997846551883
46,1507.004727104038,1514.2290794781836,1536.8997846551883,1551.211284136433
47,1546.4876308747325,1546.4876308747325,1551.211284136433,1568.0263404973794
48,1560.453911862757,1560.453911862757,1568.0263404973794,1583.2639064061834
49,1606.8483182413543,1606.8483182413543,1622.4750327706925,1636.4562988145149
50,1645.3149891321036,1645.3149891321036,1645.4370928091587,1658.8066984986901
51,1694.3181140353051,1694.3181140353051,1747.052851645085,1767.350164074934
52,1718.4449698595076,1747.052851645085,1767.350164074934,1779.8097039476534
53,1729.4486156500586,1751.2554347453352,1785.3362965230292,1805.2147745481946
54,1746.7500730075924,1785.3362965230292,1805.2147745481946,1826.1018397814141
55,1783.9005203044994,1788.135903778912,1826.1018397814141,1845.0227378056145
56,1803.9854050308186,1803.9854050308186,1845.0227378056145,1858.1089099705061
57,1842.1842307268482,1842.1842307268482,1858.1089099705061,1874.3285263849175
58,1875.6840121076232,1875.6840121076232,1887.6756955825629,1905.1136593200567
59,1909.746847682543,1909.746847682543,1930.6603277212685,1946.6486778912995
60,1951.1287557042783,1951.1287557042783,1953.5179943697267,1966.687052420008
61,1960.7355192132993,1960.7355192132993,1966.687052420008,1981.056013640035
62,1972.304940993603,1972.304940993603,1981.056013640035,1996.6336301795745
63,1986.8486523841307,1986.8486523841307,2002.9944730179025,2020.1765347582223
64,2037.3662255271033,2037.3662255271033,2043.6514293066152,2057.5273544979923
65,2088.392449218992,2088.392449218992,2119.6033522870816,2136.212563603333
66,2107.0821659380595,2119.6033522870816,2136.212563603333,2153.296187925101
67,2145.0275185807877,2145.0275185807877,2153.296187925101,2167.1461026763
68,2176.207719417499,2176.207719417499,2188.9994746304856,2203.9606358389406
69,2225.313400598414,2225.313400598414,2230.819563138553,2243.922528643717
70,2236.5167942146113,2236.5167942146113,2243.922528643717,2257.4719976467763
71,2259.7482379495386,2259.7482379495386,2263.466835353469,2277.192988522424
72,2278.2303591270943,2278.2303591270943,2327.7940525464965,2343.0333840029743
73,2302.1083654178437,2327.7940525464965,2343.0333840029743,2362.7757086994457
74,2311.1890241456776,2330.363519878335,2362.7757086994457,2374.4400762576292
75,2342.251237926786,2342.251237926786,2393.598666002088,2405.2748615763
76,2366.520392526079,2393.598666002088,2405.2748615763,2417.04912526975
77,2409.1540525201904,2409.1540525201904,2417.04912526975,2432.3620407793096
78,2443.001966877351,2443.001966877351,2445.7699892572687,2464.998100878549
79,2483.496136935743,2483.496136935743,2501.83070256858,2514.2063409613197
80,2532.8441749392828,2532.8441749392828,2537.394415387548,2552.1256635396976
81,2549.1380676667472,2549.1380676667472,2556.6225832906944,2574.6254929372712
82,2579.121341950433,2579.121341950433,2580.843225633676,2597.666857572746
83,2612.813523044649,2612.813523044649,2628.0769471430176,2645.9734054183164
84,2629.183481776586,2629.183481776586,2645.9734054183164,2666.3815357286385
85,2658.5299553162668,2658.5299553162668,2666.3815357286385,2682.580977684648
86,2684.0006791260266,2684.0006791260266,2706.7806821463573,2727.4782470160967
87,2693.7607254986483,2706.7806821463573,2733.5812583618367,2746.525709370634
88,2747.7441972255315,2747.7441972255315,2765.9060241952143,2774.296424602834
89,2789.084960833951,2789.084960833951,2796.0059853638636,2812.139289250188
90,2807.974535448544,2807.974535448544,2812.139289250188,2828.430675302332
91,2832.33974509035,2832.33974509035,2849.26865974553,2864.9922826920447
92,2871.172742417065,2871.172742417065,2880.6139581681023,2898.932593145107
93,2919.1880717409817,2919.1880717409817,2921.7883128506032,2940.7869082044267
94,2960.9132085420615,2960.9132085420615,2967.363410571183,2982.839177077745
95,2980.8011529734035,2980.8011529734035,2986.9505244184556,3007.1561208784888
96,3023.2311708892394,3023.2311708892394,3105.3526832145703,3122.9775958715813
97,3057.328084719803,3105.3526832145703,3122.9775958715813,3139.751962388511
98,3110.8899568691404,3117.469191714286,3139.751962388511,3158.478369143938
99,3166.218105777428,3166.218105777428,3168.4781565691246,3184.6885308178726
100,3177.1254965088406,3177.1254965088406,3184.6885308178726,3201.216477130309
101,3201.511392541145,3201.511392541145,3215.308075673611,3228.606010501793
102,3247.776010620683,3247.776010620683,3264.1643181173913,3279.1168059528595
103,3261.302454755134,3264.1643181173913,3296.2209929586656,3314.8610919376024
104,3281.8641663455037,3296.2209929586656,3314.8610919376024,3331.045688533843
105,3330.3247685657975,3330.3247685657975,3342.909020422521,3361.1245391435086
106,3366.327483001175,3366.327483001175,3378.227446424249,3394.518360430978
107,3387.6084229359726,3387.6084229359726,3403.935343196381,3418.0529191693104
108,3399.7555910016017,3403.935343196381,3418.0529191693104,3429.710150350625
109,3421.4145161962706,3421.4145161962706,3435.839154706505,3450.4559088785663
110,3447.672971727515,3447.672971727515,3466.4385638105573,3484.42078051468
111,3492.131062897398,3492.131062897398,3493.4872003755963,3514.7832675338796
112,3541.7590169668006,3541.7590169668006,3559.7989655322235,3576.264878735025
113,3550.3105229586213,3559.7989655322235,3576.264878735025,3592.16739944469
114,3565.9183981477313,3566.7779440013037,3592.16739944469,3611.1559280544343
115,3607.5254721651986,3607.5254721651986,3611.1559280544343,3626.6539966826954
116,3659.070143153194,3659.070143153194,3659.925645261207,3670.0414992873416
117,3685.6024893585422,3685.6024893585422,3705.419670288536,3718.534362062623
118,3721.0639320655664,3721.0639320655664,3723.027027067122,3734.471045890569
119,3774.2225359668005,3774.2225359668005,3779.8715615664883,3796.7728835947632
120,3799.087846355584,3799.087846355584,3800.5062690154796,3812.1500023688855
121,3813.0458783305476,3813.0458783305476,3813.5765839235746,3832.4836539019097
122,3834.5692993198713,3834.5692993198713,3847.36077999035,3867.4455957213295
123,3854.900440142075,3854.900440142075,3867.4455957213295,3884.583260987205
124,3869.81244934829,3869.81244934829,3896.664036525379,3907.023389976012
125,3881.086091748406,3896.664036525379,3907.023389976012,3916.669476018398
126,3919.6399150386446,3919.6399150386446,3920.4497969483414,3934.7808866315295
127,3954.519626865272,3954.519626865272,3976.1767562672267,3990.8772687808378
128,4001.5640593294193,4001.5640593294193,4007.3118709474306,4020.6950425421437
129,4025.8778508233845,4025.8778508233845,4036.7347556865666,4057.0045301691557
130,4038.24623851429,4038.24623851429,4057.0045301691557,4070.6845445178415
131,4049.416073013154,4049.416073013154,4070.6845445178415,4085.9095895976066
132,4104.573975577538,4104.573975577538,4118.22815567942,4132.937849634899
133,4122.4180627217365,4122.4180627217365,4132.937849634899,4145.4641886662075
134,4150.786527991346,4150.786527991346,4153.807578297498,4171.443185978866
135,4171.820548767686,4171.820548767686,4192.301208179637,4207.439830292525
136,4211.106283868906,4211.106283868906,4217.950157665058,4235.310701683928
137,4259.830135710738,4259.830135710738,4262.526768584254,4277.514462865254
138,4283.237473605736,4283.237473605736,4285.431774947217,4296.585543049978
139,4333.469194962339,4333.469194962339,4344.6951545784395,4363.153359942887
140,4368.965605925761,4368.965605925761,4376.148301268502,4397.623098418675
141,4412.057405578506,4412.057405578506,4412.952793874379,4425.866153464415
142,4442.359546690747,4442.359546690747,4459.071667461208,4475.536521098378
143,4461.9217611503245,4461.9217611503245,4475.536521098378,4493.013253662357
144,4483.421050905332,4483.421050905332,4493.013253662357,4511.704332796587
145,4527.937523465622,4527.937523465622,4560.443173108316,4576.644794502967
146,4573.910187478058,4573.910187478058,4580.916728549474,4592.792757440453
147,4587.863359164114,4587.863359164114,4592.792757440453,4608.284099573228
148,4633.624716242717,4633.624716242717,4641.30335465398,4659.8693942096315
149,4649.542264290392,4649.542264290392,4705.8664880649385,4722.260641172573
150,4700.824593887427,4705.8664880649385,4722.260641172573,4740.923889960225
151,4728.285291664588,4728.285291664588,4740.923889960225,4757.087374643942
152,4766.467644825324,4766.467644825324,4781.724732708914,4801.704580819854
153,4805.901733576781,4805.901733576781,4832.4140019770075,4846.951418559741
154,4832.241227447257,4832.4140019770075,4846.951418559741,4861.936349991855
155,4887.248527534194,4887.248527534194,4911.226047361715,4926.226233430068
156,4929.1967136437615,4929.1967136437615,4934.267532622464,4950.791190432336
157,4957.754731627388,4957.754731627388,4961.820456099058,4977.35066462315
158,4996.959705608589,4996.959705608589,5007.16232924097,5023.296951582667
159,5013.496724377411,5013.496724377411,5026.578521181881,5036.8062148755
160,5064.159008473798,5064.159008473798,5086.583784689133,5099.419418973746
161,5081.401662225271,5086.583784689133,5099.419418973746,5113.591445481784
162,5115.936079031088,5115.936079031088,5116.573437625705,5135.4976752874
163,5132.993119303291,5132.993119303291,5172.383009166091,5189.010853357974
164,5186.117733949198,5186.117733949198,5194.67856812572,5209.179700818458
165,5229.388310898008,5229.388310898008,5242.8545075968395,5255.6927494805805
166,5253.981845455115,5253.981845455115,5278.862891400033,5298.682556049196
167,5296.490860481504,5296.490860481504,5298.682556049196,5314.239430852113
168,5311.379072707181,5311.379072707181,5314.239430852113,5332.444484438618
169,5346.046903406073,5346.046903406073,5370.277697424381,5384.918569637039
170,5395.867061569692,5395.867061569692,5410.06984835856,5425.629860322935
171,5412.528323330114,5412.528323330114,5425.629860322935,5442.000005043241
172,5448.901526565201,5448.901526565201,5453.275061194115,5469.803695612641
173,5463.144178357937,5463.144178357937,5469.803695612641,5483.753586655527
174,5488.26624104804,5488.26624104804,5496.581572039808,5509.945293267824
175,5522.430059157211,5522.430059157211,5523.747369121129,5537.185116086582
176,5541.843804458271,5541.843804458271,5556.537921590049,5574.865323759948
177,5573.706306565741,5573.706306565741,5574.865323759948,5589.288293204012
178,5586.0914184628255,5586.0914184628255,5594.747303545307,5609.332574777615
179,5614.645248836369,5614.645248836369,5626.2863000053185,5638.902208638619
180,5652.61357231657,5652.61357231657,5685.789293857709,5703.034240379566
181,5670.829181575589,5685.789293857709,5703.034240379566,5716.611902307549
182,5692.775878892374,5692.775878892374,5716.611902307549,5730.4362056439895
183,5727.242396022221,5727.242396022221,5730.4362056439895,5745.912901554479
184,5779.219086651806,5779.219086651806,5792.375962134161,5806.622610229817
185,5788.8390958518285,5792.375962134161,5806.622610229817,5827.535524150157
186,5798.904518179241,5799.244213934521,5827.535524150157,5847.3112321127965
187,5838.97308035104,5838.97308035104,5866.2927295674135,5883.813836219309
188,5890.731107315178,5890.731107315178,5903.739093054284,5914.325833040945
189,5932.821214386279,5932.821214386279,5959.096720726548,5972.877615120428
190,5981.802786156374,5981.802786156374,5984.720757615947,6000.909422605339
191,6012.855935898275,6012.855935898275,6041.48019152167,6059.93196400426
192,6059.519702570067,6059.519702570067,6060.001590202302,6078.857379509257
193,6069.7773210478745,6069.7773210478745,6078.857379509257,6097.075758185971
194,6083.505938675387,6083.505938675387,6109.4736015104045,6120.9030186461605
195,6108.455843144448,6109.4736015104045,6120.9030186461605,6132.2446600070425
196,6145.556811665528,6145.556811665528,6146.953794106633,6161.628113306045
197,6177.712138905827,6177.712138905827,6186.556261106827,6204.5541165645745
198,6186.094285792284,6186.556261106827,6204.5541165645745,6215.609978135611
199,6234.7485088582125,6234.7485088582125,6236.065183096276,6250.760351722161
200,6261.954284358613,6261.954284358613,6269.633120358708,6281.30915618593
201,6312.885868850473,6312.885868850473,6318.232715188839,6334.092098728996
202,6351.62530007393,6351.62530007393,6401.226148449099,6417.768753707067
203,6385.960748953926,6401.226148449099,6418.408470068953,6429.259049343926
204,6400.446064711487,6418.408470068953,6429.259049343926,6450.57219416454
205,6450.607037048586,6450.607037048586,6455.054060133142,6471.54632183317
206,6459.900803827724,6459.900803827724,6471.54632183317,6489.328846484429
207,6478.005983721764,6478.005983721764,6490.8032573133105,6510.5724696999405
208,6513.9631749482805,6513.9631749482805,6515.460688090424,6531.444382618175
209,6524.123617806341,6524.123617806341,6531.444382618175,6551.070497478592
210,6544.123749440205,6544.123749440205,6551.070497478592,6566.833590334433
211,6563.096063505357,6563.096063505357,6573.437741633653,6593.528623239936
212,6573.532274111294,6573.532274111294,6593.528623239936,6611.078573316004
213,6585.375376597861,6585.375376597861,6611.078573316004,6622.120064426799
214,6616.629115863388,6616.629115863388,6622.538163851718,6640.155237937111
215,6645.165043447609,6645.165043447609,6655.677964077246,6669.550043475703
216,6694.93218441227,6694.93218441227,6711.89856994288,6732.667777494039
217,6714.369462782797,6714.369462782797,6752.468338616314,6769.021396140296
218,6755.876087762499,6755.876087762499,6781.451361891513,6794.829871924926
219,6806.750989803991,6806.750989803991,6807.007418300585,6821.964412199718
220,6833.714271745731,6833.714271745731,6849.276065179687,6864.549388579374
221,6879.338973475753,6879.338973475753,6882.216000484867,6893.575896933719
222,6912.769210613069,6912.769210613069,6921.7054768407725,6937.737768145405
223,6936.527806414721,6936.527806414721,6937.737768145405,6954.546308649379
224,6968.583214530689,6968.583214530689,6977.056450958432,6992.314428530404
225,6979.447708931076,6979.447708931076,7009.495934774153,7020.537243504191
226,7002.121018085399,7009.495934774153,7020.537243504191,7032.901283400155
227,7026.23964088955,7026.23964088955,7032.901283400155,7051.783680143173
228,7066.570778688692,7066.570778688692,7085.991799064279,7103.143734596904
229,7085.720843157305,7085.991799064279,7112.250431768734,7127.288120689179
230,7102.323187159655,7112.250431768734,7128.761008384813,7149.9679380124835
231,7144.134133412788,7144.134133412788,7151.403782650314,7166.698588444864
232,7198.161075015263,7198.161075015263,7213.493042013506,7230.202987239801
233,7250.504243999597,7250.504243999597,7252.238010750096,7271.68477443307
234,7304.956690021655,7304.956690021655,7307.652308495817,7327.4362244221675
235,7317.382507161572,7317.382507161572,7327.4362244221675,7342.033967822899
236,7368.514637052366,7368.514637052366,7374.609676282999,7391.665124480261
237,7396.6780050420475,7396.6780050420475,7399.052883021148,7421.45364166784
238,7449.224116256739,7449.224116256739,7461.187966236457,7472.402675011816
239,7471.576925974406,7471.576925974406,7479.361113244942,7496.943768850582
240,7491.61483724599,7491.61483724599,7498.614113393566,7516.124981533166
241,7504.994319276714,7504.994319276714,7516.124981533166,7530.740617669126
242,7543.546438245469,7543.546438245469,7547.719656108311,7562.821708736411
243,7556.390293898359,7556.390293898359,7562.821708736411,7579.378525151624
244,7596.359636935176,7596.359636935176,7602.068017433103,7619.139275599535
245,7634.95305641923,7634.95305641923,7651.9575993713015,7671.387860599232
246,7650.831239126494,7651.9575993713015,7677.316907933838,7693.137417478924
247,7698.8874455830755,7698.8874455830755,7701.722778997405,7721.815861763957
248,7741.206634985229,7741.206634985229,7748.264686800942,7762.121267265098
249,7784.454269873607,7784.454269873607,7833.764733214081,7847.815347279307
250,7817.461432188439,7833.764733214081,7847.815347279307,7862.529631279967
251,7870.106417794441,7870.106417794441,7872.624133687162,7891.290130338439
252,7903.451663776038,7903.451663776038,7912.343130712264,7920.413089683449
253,7915.591623237995,7915.591623237995,7920.413089683449,7934.16831567887
254,7961.671480091911,7961.671480091911,7985.219925670683,8007.78779272907
255,7997.523758388004,7997.523758388004,8007.78779272907,8021.590855578308
