# file created by code in harbour_fns_1896438.jl
# file created on 2026-03-09 at 15:39:51
# parameter: seed = 1896492
# parameter: T = 30000.0
# parameter: lower_interarrival = 7.8
# parameter: upper_interarrival = 55.8
# parameter: mean_process_times = [11.0, 16.0]
# parameter: max_queue = [9223372036854775807, 4]
# parameter: time_units = hours
id,arrival_time,start_service_times,start_service_times,completion_time
1,0.0,0.0,5.220078987182395,19.150196067389906
2,15.799873133205558,15.799873133205558,30.289482971198552,50.05997564763972
3,26.241513632569973,30.289482971198552,50.05997564763972,71.16254495329913
4,41.89158644446921,41.89158644446921,71.16254495329913,88.33705734796138
5,77.71674240050783,77.71674240050783,88.33705734796138,104.51484288318414
6,114.16538723184067,114.16538723184067,117.35340548796803,132.04361177560415
7,143.55040712732864,143.55040712732864,161.26254741677977,181.2834803656551
8,177.11433621855875,177.11433621855875,181.2834803656551,197.04199639612713
9,219.55868126810424,219.55868126810424,237.35485957128384,251.15395778340812
10,266.9370215089677,266.9370215089677,268.342847703105,286.2999500427598
11,292.858678471107,292.858678471107,306.7112643446229,319.3681187717435
12,346.04009104216266,346.04009104216266,356.3604481995554,370.54722183059675
13,361.07679876921793,361.07679876921793,370.54722183059675,391.24894514619797
14,402.14887626553457,402.14887626553457,403.85605336065186,422.56165135320447
15,449.2595673281114,449.2595673281114,452.05162340294936,466.56305748204284
16,503.34293974215325,503.34293974215325,513.115742994642,525.2183907734341
17,558.8434751032561,558.8434751032561,564.086124155274,581.2209877042434
18,583.7036355612198,583.7036355612198,600.7029309531198,617.9219437739433
19,598.4793805880483,600.7029309531198,620.1093605900078,636.6368421386526
20,611.6841752611879,620.1093605900078,641.2658528424621,656.1969218259625
21,662.8177210085461,662.8177210085461,666.0039366350811,685.5873686717395
22,673.4571857185579,673.4571857185579,685.5873686717395,701.32982993126
23,720.3805429164586,720.3805429164586,724.2632084573148,740.1198375278932
24,757.8173501968598,757.8173501968598,782.461285396241,796.7016828457986
25,783.7475265174504,783.7475265174504,857.3683366940211,868.5212639881322
26,796.0005162636434,857.3683366940211,880.2858525337042,897.4325281837235
27,826.7422704403772,880.2858525337042,897.4325281837235,918.3293531016182
28,860.5488160572672,893.0118509338547,918.3293531016182,930.8442202457891
29,904.0811310777758,904.0811310777758,930.8442202457891,948.0401462900586
30,946.7903931925844,946.7903931925844,948.0401462900586,964.2976810815851
31,993.7831449792276,993.7831449792276,1000.2747907826495,1015.5615446742897
32,1031.2013804249204,1031.2013804249204,1048.4186433213592,1066.0413448933436
33,1068.3197448761673,1068.3197448761673,1071.4423052081145,1083.889088697324
34,1088.4161097357044,1088.4161097357044,1093.872284933527,1107.8184524111555
35,1137.759800376022,1137.759800376022,1138.8630897556363,1153.0145222041133
36,1185.3007069101511,1185.3007069101511,1209.7227900177327,1225.4172722618482
37,1220.9857181747868,1220.9857181747868,1254.8697902335712,1274.8443621197705
38,1245.7411711066188,1254.8697902335712,1274.8443621197705,1295.1276510804603
39,1280.8271535638817,1280.8271535638817,1295.1276510804603,1307.0149987292746
40,1319.8575747817065,1319.8575747817065,1321.1777136203586,1332.6530482501187
41,1327.7427519054418,1327.7427519054418,1332.6530482501187,1348.6579995214381
42,1349.0358607295193,1349.0358607295193,1350.9721766087175,1368.1150823669795
43,1401.3698045243295,1401.3698045243295,1403.0112603240477,1423.0956645234705
44,1456.8862677682616,1456.8862677682616,1460.3236378599092,1474.840072248245
45,1482.6897412585504,1482.6897412585504,1487.5169543311122,1501.8283227561046
46,1514.2294693642573,1514.2294693642573,1520.7866831838674,1539.8022863530894
47,1549.44466957715,1549.44466957715,1550.3103223049923,1568.9959113249379
48,1603.7802605353309,1603.7802605353309,1612.9234971463002,1633.077663657523
49,1657.9855883228324,1657.9855883228324,1678.3447811874473,1690.0531848077135
50,1669.6098939742992,1678.3447811874473,1690.0531848077135,1704.843311351849
51,1702.0888893708802,1702.0888893708802,1707.3449674821763,1726.252620547102
52,1728.8957742457428,1728.8957742457428,1738.387237281768,1755.3522200942543
53,1781.0293422512966,1781.0293422512966,1781.864949068561,1798.507970655081
54,1833.620530474984,1833.620530474984,1844.7889573160883,1857.4044255726642
55,1877.2104345293715,1877.2104345293715,1881.6468834276009,1894.9778670440621
56,1907.1575862002871,1907.1575862002871,1917.964886937482,1937.4290222964203
57,1955.2574833986437,1955.2574833986437,1962.7960827925617,1980.4876848801719
58,1964.8006644057746,1964.8006644057746,1980.4876848801719,1995.3889951318588
59,2016.6061360654478,2016.6061360654478,2040.1129846007275,2057.6953716353646
60,2033.3258636607254,2040.1129846007275,2057.6953716353646,2076.372486340589
61,2064.6006174587305,2064.6006174587305,2076.372486340589,2088.5517539159223
62,2087.066517843995,2087.066517843995,2109.542438389385,2129.7720429222304
63,2125.317595314363,2125.317595314363,2134.137895440592,2147.1995417056373
64,2147.5787617732567,2147.5787617732567,2159.9458157688273,2179.7404599356682
65,2193.5668483508794,2193.5668483508794,2195.1190274568426,2215.394355336566
66,2241.1672905188775,2241.1672905188775,2259.5666673365095,2274.398633442222
67,2251.2322846338716,2259.5666673365095,2274.398633442222,2292.9717576033145
68,2289.932570391424,2289.932570391424,2307.4789687876114,2326.1775177859
69,2321.8846131623673,2321.8846131623673,2340.9935985497336,2357.048905799894
70,2375.564229293865,2375.564229293865,2388.1576430587893,2405.613385511744
71,2394.9979201783776,2394.9979201783776,2407.26664401127,2419.372495109036
72,2418.0081943984537,2418.0081943984537,2419.372495109036,2435.2162908764176
73,2428.384991521915,2428.384991521915,2444.9709480089614,2457.676166442168
74,2444.330502037343,2444.9709480089614,2457.676166442168,2471.076649445145
75,2485.997354858693,2485.997354858693,2486.0301687493547,2505.007326874868
76,2496.3193116774905,2496.3193116774905,2540.555323836891,2551.709652367211
77,2511.0507232567584,2540.555323836891,2551.709652367211,2560.965049601721
78,2519.2356131562346,2544.2636377211384,2578.2320730265424,2592.731145708815
79,2568.814901289202,2578.2320730265424,2592.731145708815,2614.933477777279
80,2597.1276415997772,2597.1276415997772,2614.933477777279,2635.5885356019826
81,2617.8427901223763,2617.8427901223763,2635.5885356019826,2649.5040025442154
82,2651.2710968290053,2651.2710968290053,2656.3617203765248,2669.9259475051135
83,2694.342220010528,2694.342220010528,2699.8387526319143,2714.9314123591143
84,2722.188955733339,2722.188955733339,2738.901637482956,2756.7779797907624
85,2777.851710134552,2777.851710134552,2785.7867931961546,2800.807876317425
86,2803.855552888537,2803.855552888537,2811.806739647175,2832.319938212193
87,2824.2811564344024,2824.2811564344024,2862.6551885298654,2879.549919483931
88,2877.4646088378317,2877.4646088378317,2885.064823214209,2898.021832491015
89,2897.8293446380203,2897.8293446380203,2900.2437476012074,2918.1464717582853
90,2952.3360123831258,2952.3360123831258,2959.41353092115,2977.06575968806
91,2978.823786560931,2978.823786560931,3002.9127125334994,3016.9101092174806
92,3005.895196460473,3005.895196460473,3016.9101092174806,3028.1079092760156
93,3050.0924484121538,3050.0924484121538,3061.8048696539804,3079.5730049142835
94,3058.584383858678,3061.8048696539804,3079.5730049142835,3094.905511663776
95,3099.9443845571996,3099.9443845571996,3130.3971239143175,3146.5540285428247
96,3147.888540507361,3147.888540507361,3154.940218129283,3166.958016023788
97,3180.5170874901723,3180.5170874901723,3199.1184276749577,3216.373299929269
98,3228.1757441950676,3228.1757441950676,3229.251925437702,3241.390571495003
99,3263.4857631980235,3263.4857631980235,3289.9291898929896,3304.0082132825237
100,3302.9592025073316,3302.9592025073316,3308.2876956053683,3327.8253073256924
101,3323.86333751773,3323.86333751773,3339.2107934209243,3358.3384595080884
102,3353.7841361460446,3353.7841361460446,3372.6528156918425,3389.410267808416
103,3380.326308731419,3380.326308731419,3389.410267808416,3403.0043337504308
104,3400.6196097265065,3400.6196097265065,3425.415772465768,3439.145664694308
105,3417.9394618705455,3425.415772465768,3439.145664694308,3455.763680565859
106,3430.9300334788695,3430.9300334788695,3455.763680565859,3469.4841937907327
107,3443.713824856216,3443.713824856216,3469.4841937907327,3488.1018648387417
108,3480.391227307932,3480.391227307932,3488.1018648387417,3510.6756540105357
109,3502.705176383067,3502.705176383067,3510.6756540105357,3527.165202832529
110,3525.614043192969,3525.614043192969,3545.0260589813884,3560.6942963216684
111,3535.6826495971136,3545.0260589813884,3560.6942963216684,3578.6986005725103
112,3564.6875757969306,3564.6875757969306,3586.9700151694988,3603.0564167612592
113,3582.4553530643484,3586.9700151694988,3603.0564167612592,3618.689353861085
114,3610.2290364649657,3610.2290364649657,3619.436857828595,3632.8422927834654
115,3647.7801446823687,3647.7801446823687,3662.094197979441,3677.790782914664
116,3660.059196805047,3662.094197979441,3700.6195444327445,3716.6521890709137
117,3673.9023926573846,3700.6195444327445,3716.6521890709137,3731.9392981390415
118,3699.7872025765982,3703.6888366553585,3747.9211214653706,3766.0796888765103
119,3735.115463544955,3747.9211214653706,3766.0796888765103,3780.851646846327
120,3790.6024328619087,3790.6024328619087,3804.5054818532894,3824.921157830155
121,3837.655978495839,3837.655978495839,3848.1461939123374,3864.95819008488
122,3856.861645846854,3856.861645846854,3864.95819008488,3879.007657539852
123,3872.482760140216,3872.482760140216,3881.2667485781903,3896.3210518232827
124,3902.3715846088403,3902.3715846088403,3908.0896730301183,3924.395267840408
125,3941.9058653805578,3941.9058653805578,3958.652300743944,3972.786295350024
126,3955.890551163802,3958.652300743944,3972.786295350024,3988.5585841246
127,3988.773957193125,3988.773957193125,4004.3561345877506,4018.1160318704974
128,4043.0341519997414,4043.0341519997414,4055.389042684537,4076.816144608684
129,4052.3067640613535,4055.389042684537,4076.816144608684,4090.7258963998647
130,4067.204140583557,4067.204140583557,4090.7258963998647,4109.74537593278
131,4115.019713233254,4115.019713233254,4121.478974651345,4141.0524898118965
132,4144.55590142684,4144.55590142684,4145.954410555141,4159.519908672072
133,4198.307834609025,4198.307834609025,4233.566942367513,4253.954398642772
134,4219.326182172071,4233.566942367513,4253.954398642772,4269.122482696538
135,4270.2995810411585,4270.2995810411585,4271.438047954561,4283.957632439489
136,4283.071109643419,4283.071109643419,4283.957632439489,4302.2828645389
137,4319.291247045943,4319.291247045943,4335.681457608458,4349.698302543332
138,4356.348342027544,4356.348342027544,4376.842151780706,4390.915390185083
139,4396.33904273625,4396.33904273625,4403.356484946641,4415.236319912287
140,4419.699207510694,4419.699207510694,4420.701230142671,4437.997783041649
141,4433.424934792805,4433.424934792805,4437.997783041649,4453.673217186826
142,4471.061507012709,4471.061507012709,4473.616555729529,4491.482860318148
143,4478.924735954115,4478.924735954115,4491.482860318148,4510.77272886
144,4521.126492419338,4521.126492419338,4552.291683113156,4570.332830526165
145,4552.419772332442,4552.419772332442,4570.332830526165,4583.930262042497
146,4562.866006078643,4568.726616495846,4596.167909708843,4611.586368272844
147,4601.628837273737,4601.628837273737,4611.586368272844,4629.484022296216
148,4637.442443104897,4637.442443104897,4644.044338329933,4659.122723624619
149,4652.70455880951,4652.70455880951,4676.807584400236,4689.213433839282
150,4670.219342423187,4676.807584400236,4692.143343897437,4710.208977019614
151,4690.750717646808,4692.143343897437,4710.208977019614,4726.563947573176
152,4708.816303233093,4708.816303233093,4726.563947573176,4743.267192497858
153,4723.838329714183,4725.539291596627,4743.267192497858,4761.065118976557
154,4757.036150596848,4757.036150596848,4796.100636894354,4810.556031529804
155,4806.957628906402,4806.957628906402,4818.781027024992,4830.7857574182235
156,4831.658313096044,4831.658313096044,4833.295629134822,4849.06167667818
157,4861.847245907772,4861.847245907772,4866.791637676419,4884.045071429491
158,4899.023150653237,4899.023150653237,4911.98211728363,4931.441223582932
159,4920.6588110900075,4920.6588110900075,4931.441223582932,4944.725764003342
160,4963.903191272494,4963.903191272494,4967.146973178502,4978.114157958177
161,5001.287896590944,5001.287896590944,5020.228770069431,5038.54297607789
162,5014.369412428329,5020.228770069431,5045.895896445096,5066.28638058955
163,5028.478245069065,5045.895896445096,5066.28638058955,5083.459897053188
164,5040.50954363018,5049.765336056061,5083.459897053188,5099.703500967792
165,5083.712592456498,5083.712592456498,5103.4847268653075,5119.732942621499
166,5132.94268838321,5132.94268838321,5171.565908012865,5185.731198465507
167,5144.664669852658,5171.565908012865,5197.659202947463,5209.880681044252
168,5183.072347832777,5197.659202947463,5212.160288838591,5227.791236125095
169,5205.839938549148,5212.160288838591,5227.791236125095,5240.672157556728
170,5235.1856586300655,5235.1856586300655,5240.672157556728,5255.376779579199
171,5256.023033949082,5256.023033949082,5263.503358321588,5282.815868218537
172,5282.866337537574,5282.866337537574,5309.758504178196,5328.544298070225
173,5300.192665138138,5309.758504178196,5346.848182731648,5362.509814113321
174,5315.676442130818,5346.848182731648,5362.509814113321,5377.044207795961
175,5344.210157199933,5346.98349196391,5377.044207795961,5393.449527040528
176,5397.386416291091,5397.386416291091,5403.293479533946,5418.933648534086
177,5452.296711550729,5452.296711550729,5453.8391061209295,5468.2828473773425
178,5463.345577998424,5463.345577998424,5470.796948020582,5490.149432638601
179,5491.923782114829,5491.923782114829,5492.92693276847,5514.049568266025
180,5538.365558606399,5538.365558606399,5547.657537094384,5560.504430188119
181,5591.949449408025,5591.949449408025,5610.918508881832,5630.731037889355
182,5644.075466273546,5644.075466273546,5655.106655786969,5668.468168320089
183,5662.941526661056,5662.941526661056,5668.468168320089,5686.672806530655
184,5708.962857110148,5708.962857110148,5731.462085435947,5749.050936334093
185,5722.2875494672035,5731.462085435947,5749.050936334093,5764.833235974002
186,5732.44969105548,5733.931324392164,5764.833235974002,5780.1760184090235
187,5766.332048979357,5766.332048979357,5780.1760184090235,5797.8645032948225
188,5791.012077829145,5791.012077829145,5805.232159055804,5823.812020525071
189,5844.171573312632,5844.171573312632,5876.952692910013,5893.3076496541935
190,5884.6064998393695,5884.6064998393695,5923.625879867031,5939.774824961873
191,5927.813238329895,5927.813238329895,5946.02314667463,5962.97627173735
192,5969.888345897643,5969.888345897643,5972.843624345499,5991.984988395418
193,5987.080881045763,5987.080881045763,5991.984988395418,5999.706364285368
194,6009.78060751128,6009.78060751128,6013.746669485086,6027.456907640493
195,6041.34724367824,6041.34724367824,6062.783158275145,6079.812411418292
196,6051.352090244799,6062.783158275145,6079.812411418292,6100.223696139385
197,6080.271608500766,6080.271608500766,6100.223696139385,6122.8701972735125
198,6134.6270654279215,6134.6270654279215,6137.24723931533,6147.976337911508
199,6180.982643524751,6180.982643524751,6183.822886812515,6198.407073711566
200,6204.221603264293,6204.221603264293,6204.688158148448,6222.11594251967
201,6246.123496111566,6246.123496111566,6257.012570082042,6269.894756965509
202,6287.124812869,6287.124812869,6300.494264335808,6318.478477466638
203,6327.808538056733,6327.808538056733,6349.898015614241,6371.919955778624
204,6375.993646455999,6375.993646455999,6387.7358771929485,6400.499767786231
205,6430.463697397281,6430.463697397281,6461.105102618326,6475.40635573305
206,6473.0505070598865,6473.0505070598865,6480.7469850704665,6498.462049651453
207,6503.29875406578,6503.29875406578,6505.080143567622,6519.776950426044
208,6512.248363260879,6512.248363260879,6519.776950426044,6536.759293703544
209,6539.969317342372,6539.969317342372,6550.535970229684,6563.287361132045
210,6555.500394882251,6555.500394882251,6563.287361132045,6574.6085948207565
211,6582.532074890446,6582.532074890446,6594.331902299773,6613.735479996173
212,6626.006139903759,6626.006139903759,6627.049798423238,6642.083402906339
213,6648.9241023775085,6648.9241023775085,6660.220445623366,6677.487914600926
214,6694.2619469330875,6694.2619469330875,6694.669340921903,6717.621244817519
215,6731.313237866629,6731.313237866629,6732.585896360175,6758.801293825164
216,6768.654159728966,6768.654159728966,6774.692348031323,6782.722894957312
217,6811.06558686767,6811.06558686767,6831.268217441779,6844.2782907522005
218,6829.473098926246,6831.268217441779,6844.2782907522005,6861.043587952563
219,6858.726233804073,6858.726233804073,6861.235913638669,6883.607882109137
220,6891.95345467665,6891.95345467665,6892.724093660756,6907.8421100775695
221,6932.017048453674,6932.017048453674,6942.245117873118,6955.572841800937
222,6948.4169187114585,6948.4169187114585,6973.16579311329,6983.987331937468
223,6966.443081711147,6973.16579311329,6983.987331937468,7002.020938938571
224,7014.0510783438895,7014.0510783438895,7018.447628858413,7030.8662694200475
225,7039.171027821814,7039.171027821814,7079.982944751332,7090.804068822842
226,7047.920106653649,7079.982944751332,7090.804068822842,7111.850954699479
227,7074.387891413457,7084.500477274031,7111.850954699479,7127.440621149312
228,7092.031143887787,7095.85664433072,7146.389245711519,7163.470995633911
229,7129.986652469766,7146.389245711519,7163.470995633911,7184.1655409257355
230,7183.117811609164,7183.117811609164,7184.973551471868,7200.449230919236
231,7223.166228450422,7223.166228450422,7231.246699765101,7247.249486226509
232,7261.261018441081,7261.261018441081,7263.838660838429,7284.086217436653
233,7282.740968804018,7282.740968804018,7288.77808463216,7302.87192050461
234,7293.757578854393,7293.757578854393,7302.87192050461,7321.603222153066
235,7322.462262600142,7322.462262600142,7326.084992526204,7339.020462156821
236,7362.8567091360355,7362.8567091360355,7364.081425180008,7384.0981595328985
237,7372.220957295135,7372.220957295135,7398.918799657235,7413.19288354063
238,7391.373410752805,7398.918799657235,7413.19288354063,7429.786384708283
239,7432.234064791161,7432.234064791161,7433.197609616648,7447.253251723699
240,7480.680985572069,7480.680985572069,7521.411886869005,7538.541565270034
241,7506.832892224288,7521.411886869005,7538.541565270034,7555.913483479846
242,7522.183979716527,7528.1649997505165,7555.913483479846,7573.114174283796
243,7542.022224196049,7542.022224196049,7573.114174283796,7585.608110009728
244,7589.872839330054,7589.872839330054,7603.887820328226,7618.93805246716
245,7611.523869628713,7611.523869628713,7636.3810407085475,7650.02994154272
246,7622.45809006033,7636.3810407085475,7650.02994154272,7664.15696834243
247,7655.796078293365,7655.796078293365,7671.210850174945,7688.446583319709
248,7684.23624275049,7684.23624275049,7694.306183437866,7711.98264766995
249,7731.956119863227,7731.956119863227,7741.1843871358515,7754.254059346167
250,7762.092105556804,7762.092105556804,7792.586215717782,7807.364336010192
251,7787.405128443683,7792.586215717782,7809.302444264079,7825.382431717951
252,7836.693947799249,7836.693947799249,7840.753538169308,7858.849157672325
253,7879.476711561577,7879.476711561577,7948.150631309356,7966.26628782658
254,7901.499956553128,7948.150631309356,7998.360288946132,8019.419544072906
255,7915.372646108277,7998.360288946132,8019.419544072906,8032.276997314419
256,7937.509033137967,7999.011138734475,8032.276997314419,8047.8543865966685
