# file created by code in harbour_fns_1896438.jl
# file created on 2026-03-09 at 15:39:49
# parameter: seed = 1896462
# parameter: T = 30000.0
# parameter: lower_interarrival = 7.8
# parameter: upper_interarrival = 55.8
# parameter: mean_process_times = [11.0, 16.0]
# parameter: max_queue = [9223372036854775807, 4]
# parameter: time_units = hours
id,arrival_time,start_service_times,start_service_times,completion_time
1,0.0,0.0,4.944316071599695,24.967351468382727
2,30.013016609283635,30.013016609283635,32.280441779008974,49.62569934441766
3,74.1203200708246,74.1203200708246,79.38218282215139,91.8694452779866
4,122.77189070834565,122.77189070834565,124.69598266196039,145.28587053569169
5,133.49594965059026,133.49594965059026,155.13782789602544,169.47864683228016
6,156.08582425233163,156.08582425233163,169.47864683228016,183.3998541893253
7,183.59364467772468,183.59364467772468,191.71613502308787,205.8366376830053
8,195.86766001917354,195.86766001917354,205.8366376830053,221.14733795333157
9,204.24293951142073,204.24293951142073,221.14733795333157,234.70653155813528
10,234.8285598495125,234.8285598495125,240.9715714583309,260.74887567799743
11,250.75510540648352,250.75510540648352,260.74887567799743,279.64811654934783
12,304.4715101015249,304.4715101015249,318.07443160750495,337.2584459653575
13,333.4406353518796,333.4406353518796,337.2584459653575,354.4285874284569
14,350.85607619821155,350.85607619821155,361.28819817119756,372.03308011084414
15,402.1581096398228,402.1581096398228,406.5179794275128,422.8196531473006
16,452.8176287479951,452.8176287479951,457.26677109181236,474.68591726583946
17,468.429984743345,468.429984743345,503.35469298648275,518.8906866991751
18,482.5383244035028,503.35469298648275,518.8906866991751,532.1059322892446
19,506.0636438644597,517.5465862814067,533.6481414454355,544.1992875929184
20,560.8598563471874,560.8598563471874,580.3540899386127,599.0898315370983
21,613.195597112105,613.195597112105,616.3741177737003,630.5190007182252
22,660.6275702414075,660.6275702414075,665.671081886072,684.2121778791665
23,714.320698543791,714.320698543791,772.9610657536923,794.7823243621181
24,762.1741337724502,772.9610657536923,794.7823243621181,809.862378607788
25,781.9738451290011,784.7509998334607,809.862378607788,825.06552261556
26,835.4205410586682,835.4205410586682,836.5271496490249,851.568167840901
27,860.4741792747861,860.4741792747861,862.2131037074416,874.1254450866143
28,875.9837810289265,875.9837810289265,892.8073105555976,910.773173616584
29,908.184256154611,908.184256154611,910.773173616584,927.0189532668255
30,950.5858715236025,950.5858715236025,960.8469604581439,978.7060673706065
31,996.3356513613435,996.3356513613435,997.5735168767158,1012.4735560954922
32,1051.8375108430566,1051.8375108430566,1060.4433181943687,1073.1179878359014
33,1091.2041818646555,1091.2041818646555,1110.6980404344768,1125.4664811796308
34,1131.4373664994291,1131.4373664994291,1151.7904708557346,1171.4793937219013
35,1179.2399540550837,1179.2399540550837,1187.506469461767,1204.4978904785648
36,1207.5455713143442,1207.5455713143442,1233.3568570278273,1245.5174365328228
37,1256.4149467565655,1256.4149467565655,1258.7187550036294,1274.7635529311417
38,1305.1285576461557,1305.1285576461557,1318.9388214604312,1332.7255021647854
39,1319.2666810002074,1319.2666810002074,1332.7255021647854,1349.875294161783
40,1340.3368880733742,1340.3368880733742,1353.6351434336868,1364.9130438559241
41,1350.0799001271898,1353.6351434336868,1389.188904298766,1405.661713526828
42,1396.9287412820931,1396.9287412820931,1405.661713526828,1415.3476991596985
43,1439.366322808996,1439.366322808996,1472.820632316767,1489.1981833254815
44,1463.1360799529791,1472.820632316767,1489.1981833254815,1506.0824364568787
45,1491.5116340944637,1491.5116340944637,1506.0824364568787,1523.6973367683888
46,1542.6116334941726,1542.6116334941726,1545.5429850052121,1559.7012985307188
47,1565.5511446839364,1565.5511446839364,1575.089662188902,1593.7828864309836
48,1585.3026768403456,1585.3026768403456,1593.7828864309836,1612.419863091441
49,1629.767978341558,1629.767978341558,1631.2565119279786,1646.1812934637946
50,1681.9605967476077,1681.9605967476077,1695.18996530121,1711.7491843918829
51,1724.5819113528596,1724.5819113528596,1726.6603304031073,1743.8921732515144
52,1773.6266487730297,1773.6266487730297,1783.3317026428938,1798.1093096515103
53,1787.5254907164906,1787.5254907164906,1822.4573818405024,1835.541077581769
54,1800.0628166527056,1822.4573818405024,1835.541077581769,1855.3506628622988
55,1849.006202469261,1849.006202469261,1855.3506628622988,1874.0891236220314
56,1869.9934091774671,1869.9934091774671,1875.7312002034732,1897.6302183291518
57,1880.1577867818753,1880.1577867818753,1897.6302183291518,1914.6728484760006
58,1893.826410709651,1896.8209506370613,1927.6903055326318,1947.326018038106
59,1911.207154580064,1927.6903055326318,1947.326018038106,1964.9610030937295
60,1921.7589245335134,1930.3257379801319,1964.9610030937295,1979.463250947278
61,1960.1202457076802,1960.1202457076802,1979.463250947278,2000.7902087772516
62,1977.9870224057945,1977.9870224057945,2000.7902087772516,2017.5019399704538
63,2015.4491380722416,2015.4491380722416,2052.888696851207,2074.011553762973
64,2046.0660257236536,2052.888696851207,2074.011553762973,2088.454570616239
65,2094.42412234414,2094.42412234414,2096.12290876,2109.4208520769866
66,2111.673984749861,2111.673984749861,2140.3881435577437,2160.5052337902616
67,2136.3846104002046,2140.3881435577437,2160.5052337902616,2172.858564486692
68,2155.7725726059552,2155.7725726059552,2181.187593759826,2193.679711720103
69,2211.4934642033545,2211.4934642033545,2211.6644466962957,2231.485461545754
70,2249.4759580921964,2249.4759580921964,2253.868128703149,2274.619548175123
71,2301.583920580146,2301.583920580146,2324.058377884743,2339.7191123596513
72,2327.034819056902,2327.034819056902,2339.7191123596513,2353.6972561419743
73,2378.25207294465,2378.25207294465,2382.358051685208,2395.6733463933124
74,2401.95417614888,2401.95417614888,2402.1196808469117,2422.862785638511
75,2457.4993205109117,2457.4993205109117,2480.629577807231,2499.965853721965
76,2488.687596109674,2488.687596109674,2499.965853721965,2516.8348573538556
77,2510.707297328371,2510.707297328371,2516.8348573538556,2535.7680387809396
78,2557.8882929142983,2557.8882929142983,2576.0613767446803,2596.0808572227065
79,2591.081294802436,2591.081294802436,2614.2264246590207,2631.1134447732
80,2599.127654694909,2614.2264246590207,2631.1134447732,2648.544386139866
81,2630.9579330153456,2630.9579330153456,2648.544386139866,2662.6090474838857
82,2661.1620302878837,2661.1620302878837,2662.9003333405894,2678.5506708077255
83,2687.6376209388427,2687.6376209388427,2694.099360918151,2709.8005475569057
84,2711.772491821148,2711.772491821148,2750.208092046863,2764.7665233200955
85,2763.997391221146,2763.997391221146,2771.5667961127137,2789.6888582259
86,2776.0021871659906,2776.0021871659906,2789.6888582259,2798.3740661561815
87,2803.052561793652,2803.052561793652,2808.3148942782677,2830.6376629739943
88,2811.6790004526897,2811.6790004526897,2830.6376629739943,2846.519673264376
89,2850.9014009116104,2850.9014009116104,2852.729505114268,2866.9874040799377
90,2890.4454905828034,2890.4454905828034,2900.4101803853773,2915.702361902026
91,2925.8091133814864,2925.8091133814864,2946.660814606531,2968.3759794639855
92,2949.289833114041,2949.289833114041,2968.3759794639855,2980.7785254168784
93,2969.7222072598493,2969.7222072598493,2980.7785254168784,2997.72955485709
94,2995.638247502144,2995.638247502144,3003.8151384766884,3019.98403902798
95,3031.01906790289,3031.01906790289,3033.7331683294465,3051.481878472528
96,3081.349233068244,3081.349233068244,3083.1447072144047,3095.667083475394
97,3103.8999357369257,3103.8999357369257,3108.5417716063057,3124.217823371372
98,3147.9421917709547,3147.9421917709547,3149.8941839973522,3166.5881412616695
99,3163.209405909557,3163.209405909557,3169.5524660487918,3187.125838642704
100,3216.6932618629803,3216.6932618629803,3218.2592522954124,3232.015379555049
101,3240.474801532037,3240.474801532037,3290.6645855020715,3304.582320668322
102,3255.9595686617367,3290.6645855020715,3304.582320668322,3318.980348296576
103,3296.6417542640224,3298.0716592178883,3318.980348296576,3328.571628451247
104,3325.2988016547847,3325.2988016547847,3328.571628451247,3343.7877126562676
105,3349.0638682027084,3349.0638682027084,3360.9068792091307,3375.6404659275327
106,3382.164933797776,3382.164933797776,3383.378248246082,3399.8907783869413
107,3407.4619741650827,3407.4619741650827,3430.1711916524614,3441.6087721584963
108,3445.0481189285883,3445.0481189285883,3451.6902455782338,3464.453023617943
109,3465.2908569423025,3465.2908569423025,3467.3764784878135,3480.4629599699856
110,3481.330408099357,3481.330408099357,3486.0439730453104,3505.8818677970035
111,3492.6690345311836,3492.6690345311836,3505.8818677970035,3520.326530915033
112,3507.8195491237857,3507.8195491237857,3520.326530915033,3536.453127791664
113,3524.2366310062807,3524.2366310062807,3541.5827439912523,3554.07785452314
114,3550.2943678904217,3550.2943678904217,3558.2295648657996,3573.0941842479156
115,3589.8816353782736,3589.8816353782736,3595.662787759149,3609.230191234797
116,3599.95841070821,3599.95841070821,3609.230191234797,3621.892076098948
117,3643.7636543971266,3643.7636543971266,3652.344992345662,3666.5122826444285
118,3680.6580778804077,3680.6580778804077,3694.9224025034346,3710.3182306485746
119,3720.101894941008,3720.101894941008,3723.526592163195,3740.326179823398
120,3760.327922086798,3760.327922086798,3766.986544282909,3784.9847291351366
121,3771.054219142375,3771.054219142375,3784.9847291351366,3795.1294418682587
122,3826.223987261983,3826.223987261983,3852.2933499951973,3871.6465423232853
123,3836.7063006767885,3852.2933499951973,3871.6465423232853,3890.3773721853468
124,3856.3456822839107,3857.41738262426,3890.3773721853468,3914.477879533587
125,3894.3085133769255,3894.3085133769255,3914.477879533587,3929.1419638003154
126,3947.116163213007,3947.116163213007,3950.548288875059,3963.85388334982
127,3970.1892303057807,3970.1892303057807,3983.9490566940785,3999.316597152704
128,4024.2999188805547,4024.2999188805547,4033.4473319145077,4050.7349968208428
129,4064.824602064623,4064.824602064623,4098.966183687869,4111.041206728583
130,4084.0286042631938,4098.966183687869,4111.041206728583,4126.302899154688
131,4127.598174950507,4127.598174950507,4143.477341392604,4159.385209826524
132,4174.3353211643325,4174.3353211643325,4199.780514845536,4215.773389944201
133,4225.803702054084,4225.803702054084,4246.352148075349,4262.830673501827
134,4249.73356913912,4249.73356913912,4262.830673501827,4279.428580963753
135,4284.1294252349135,4284.1294252349135,4285.734205821288,4299.536485587434
136,4338.171393095621,4338.171393095621,4371.195209633931,4387.09825304711
137,4350.38926410376,4371.195209633931,4387.09825304711,4398.47439401719
138,4372.279962322468,4379.342464428867,4398.47439401719,4414.4136916663665
139,4418.316241528837,4418.316241528837,4430.7937959476585,4445.550665601036
140,4468.817695304047,4468.817695304047,4472.746238286284,4486.710943383638
141,4496.490204650089,4496.490204650089,4504.127288755877,4519.359252119272
142,4523.645786410763,4523.645786410763,4531.938761456657,4545.7932407135895
143,4571.453974927967,4571.453974927967,4573.7207413507995,4592.542604093924
144,4595.781121510337,4595.781121510337,4618.748243579477,4634.311073738696
145,4648.212100323668,4648.212100323668,4657.542732061724,4672.636425791936
146,4657.687492267124,4657.687492267124,4674.256939478425,4688.623662253999
147,4695.2172974902,4695.2172974902,4709.302680856068,4721.976133208306
148,4720.597259892242,4720.597259892242,4721.976133208306,4738.172474284136
149,4767.579557811914,4767.579557811914,4777.056680066774,4792.730615059125
150,4806.476846983913,4806.476846983913,4814.181460398332,4830.251802169989
151,4855.545274221845,4855.545274221845,4861.411961892879,4881.270169866821
152,4874.772838664045,4874.772838664045,4881.270169866821,4892.499870115038
153,4893.104105709503,4893.104105709503,4895.630298073863,4909.6871741704
154,4941.1546846634155,4941.1546846634155,4946.230231845551,4965.740469842419
155,4987.575140087643,4987.575140087643,4989.24352839199,5004.623103895672
156,5004.872543209459,5004.872543209459,5013.971638600769,5027.978668872126
157,5024.913378062463,5024.913378062463,5027.978668872126,5046.064600983283
158,5068.345167670567,5068.345167670567,5075.693704069037,5090.52399813188
159,5086.61034545591,5086.61034545591,5095.351699405113,5110.604248179057
160,5119.09657957064,5119.09657957064,5121.93506722409,5139.160220470037
161,5153.314297652832,5153.314297652832,5157.196695466359,5171.134515469753
162,5172.949407324374,5172.949407324374,5181.486984024484,5198.164928014739
163,5222.512435804095,5222.512435804095,5263.570696898794,5277.355319856274
164,5256.207267702866,5263.570696898794,5277.355319856274,5294.360840338647
165,5283.72627605645,5283.72627605645,5306.518705160549,5326.564751414689
166,5337.880829684483,5337.880829684483,5349.02867229419,5354.8097953641845
167,5360.5377567656615,5360.5377567656615,5361.017813239014,5381.164951910792
168,5377.818291640318,5377.818291640318,5391.098328662368,5407.951353792449
169,5386.477122272991,5391.098328662368,5407.951353792449,5417.334805792168
170,5401.2388846680215,5401.2388846680215,5417.334805792168,5432.939182975127
171,5447.572176537198,5447.572176537198,5454.9292699245925,5465.182743865621
172,5491.662470926282,5491.662470926282,5492.9431928489275,5509.939803349758
173,5546.274848542954,5546.274848542954,5566.876976518917,5584.413262006569
174,5589.0189117902155,5589.0189117902155,5597.696092866093,5615.040908379595
175,5644.588071835228,5644.588071835228,5672.93376495697,5692.31291886489
176,5677.380634866832,5677.380634866832,5692.31291886489,5705.637314139787
177,5705.599016866144,5705.599016866144,5707.032364937189,5720.291746853905
178,5719.333020499463,5719.333020499463,5738.967277729787,5750.622355223349
179,5728.7928872925595,5738.967277729787,5750.622355223349,5768.188395882761
180,5754.886989752145,5754.886989752145,5780.4777705066745,5789.765024292652
181,5805.318443348392,5805.318443348392,5812.398021797254,5830.353553273124
182,5816.48946050761,5816.48946050761,5830.353553273124,5842.752133255901
183,5867.5821012892875,5867.5821012892875,5891.235872742834,5910.328198752266
184,5887.128564772171,5891.235872742834,5919.6469564033805,5932.403669482405
185,5914.63330667098,5919.6469564033805,5932.403669482405,5951.137038481692
186,5956.555958324945,5956.555958324945,5957.88587082874,5979.618964647483
187,5990.271890394594,5990.271890394594,5992.567949285354,6009.684602060562
188,6029.231613785297,6029.231613785297,6036.435075086227,6052.4781135739795
189,6066.188397797548,6066.188397797548,6067.3761741995395,6083.957727619278
190,6113.1792695506465,6113.1792695506465,6122.572334718884,6136.7622147600805
191,6140.355467123065,6140.355467123065,6154.555410024775,6171.409313110062
192,6185.5709409766305,6185.5709409766305,6189.183298088695,6205.155502498986
193,6240.183559935292,6240.183559935292,6273.944199436453,6289.248706890888
194,6279.491106563186,6279.491106563186,6289.248706890888,6307.5005512948
195,6298.696586923312,6298.696586923312,6313.150030863055,6325.700593636013
196,6341.152989537451,6341.152989537451,6346.964510463805,6369.582392228151
197,6362.301787062623,6362.301787062623,6388.630650874671,6406.966335315073
198,6417.576016365064,6417.576016365064,6429.485131279182,6444.118260570556
199,6452.377236067332,6452.377236067332,6458.342848365168,6477.36523580379
200,6477.57394500284,6477.57394500284,6486.689287270998,6499.607789403464
201,6527.500073056376,6527.500073056376,6535.143390084344,6547.296151442983
202,6562.527705538011,6562.527705538011,6582.794080269457,6596.749053223338
203,6584.447501882777,6584.447501882777,6596.749053223338,6611.782440828929
204,6640.136283541132,6640.136283541132,6675.505071723678,6692.392815492926
205,6692.977909508711,6692.977909508711,6705.7268958524455,6723.3549558980585
206,6726.0288348011945,6726.0288348011945,6732.4612563684095,6754.211669689556
207,6772.102160240626,6772.102160240626,6782.06536061052,6801.201346843256
208,6803.797984681601,6803.797984681601,6807.615203722178,6821.787167253683
209,6858.143188681704,6858.143188681704,6867.572550043659,6882.3089495160875
210,6913.496482477051,6913.496482477051,6914.054455485855,6930.75819177047
211,6945.611602628313,6945.611602628313,6975.959476348815,6984.788306083567
212,6988.606346029083,6988.606346029083,6990.920721323359,7008.30052533281
213,7017.713562533601,7017.713562533601,7020.353337483283,7033.452279754768
214,7044.8922479638495,7044.8922479638495,7047.949362352886,7067.691544126722
215,7095.691426152248,7095.691426152248,7096.483621582663,7109.967890656419
216,7118.972857116527,7118.972857116527,7126.780403556738,7140.809831644731
217,7140.86733100778,7140.86733100778,7168.483673006261,7184.611296065574
218,7160.923149617498,7168.483673006261,7184.611296065574,7200.906518450848
219,7188.738872768202,7188.738872768202,7200.906518450848,7221.689727613009
220,7242.928368449183,7242.928368449183,7245.002162937246,7263.022543052643
221,7276.7190943847045,7276.7190943847045,7290.753643604021,7316.675330692351
222,7319.38122628756,7319.38122628756,7323.261265383513,7345.107060688407
223,7350.967409500942,7350.967409500942,7357.399429480399,7377.396069926331
224,7403.427629783449,7403.427629783449,7417.405919670071,7434.556146038947
225,7446.138470907626,7446.138470907626,7453.320796527959,7471.718023345785
226,7483.420654918117,7483.420654918117,7489.451776069508,7504.574062306326
227,7496.611593060529,7496.611593060529,7504.574062306326,7516.436771000105
228,7524.003453966083,7524.003453966083,7529.03201419384,7546.397307126947
229,7534.206074168457,7534.206074168457,7546.397307126947,7570.301578058798
230,7584.082994266691,7584.082994266691,7586.989714424441,7603.186075203975
231,7603.311190644943,7603.311190644943,7610.741905291642,7622.104087221722
232,7625.817334011801,7625.817334011801,7646.979324292598,7664.947621012294
233,7649.653472777199,7649.653472777199,7666.936563501836,7678.553262212534
234,7666.083241415423,7666.936563501836,7678.553262212534,7692.499641695218
235,7682.03362893247,7682.03362893247,7692.499641695218,7709.40201611125
236,7732.955815781405,7732.955815781405,7768.160626715264,7783.59580642326
237,7784.690770199013,7784.690770199013,7788.639550102198,7805.16399915057
238,7800.400345696525,7800.400345696525,7816.168921835837,7836.634347649297
239,7843.845936624031,7843.845936624031,7884.502820193713,7895.015994583357
240,7883.863263013507,7884.502820193713,7895.015994583357,7915.661351305288
241,7911.823586752954,7911.823586752954,7915.661351305288,7926.873161219303
242,7966.402173655483,7966.402173655483,7975.4694930740625,7989.972212472853
243,8021.140619077004,8021.140619077004,8052.403091612303,8068.924289504972
244,8064.98280618602,8064.98280618602,8071.7239224623545,8089.478886413261
245,8111.619477872413,8111.619477872413,8127.114607870478,8142.719803927402
246,8161.311041909388,8161.311041909388,8169.844869429285,8178.35730134531
247,8212.009818314911,8212.009818314911,8214.211649334662,8226.699137503947
248,8230.116303169976,8230.116303169976,8250.501242136846,8267.11151592565
249,8242.565296743758,8250.501242136846,8284.93340869829,8298.506380907256
250,8297.224812016508,8297.224812016508,8301.449623652074,8317.824075021026
251,8342.601332923976,8342.601332923976,8354.86104183165,8369.532252224211
252,8353.579075439013,8354.86104183165,8369.532252224211,8378.8082983007
253,8404.980945534262,8404.980945534262,8435.242107783377,8451.706275177308
254,8435.7905319236,8435.7905319236,8451.706275177308,8468.321571980761
255,8465.550518430837,8465.550518430837,8468.321571980761,8488.321226711141
256,8510.50622023921,8510.50622023921,8511.649129890482,8526.23101129501
