# file created by code in harbour_fns_1896438.jl
# file created on 2026-03-09 at 15:39:49
# parameter: seed = 1896459
# parameter: T = 30000.0
# parameter: lower_interarrival = 7.8
# parameter: upper_interarrival = 55.8
# parameter: mean_process_times = [11.0, 16.0]
# parameter: max_queue = [9223372036854775807, 4]
# parameter: time_units = hours
id,arrival_time,start_service_times,start_service_times,completion_time
1,0.0,0.0,6.549272252951128,17.77224155541191
2,21.834330956891442,21.834330956891442,34.12094351350045,50.436767716285914
3,43.516549958867145,43.516549958867145,50.436767716285914,63.307546203559454
4,65.3545916745691,65.3545916745691,66.80869499610333,76.98318282801675
5,81.40841822675523,81.40841822675523,84.70489160539337,96.94546284967173
6,112.22280011991172,112.22280011991172,128.1207705534863,146.0074010416431
7,153.0173540337749,153.0173540337749,157.19108355501302,169.55728784196435
8,196.13580853986429,196.13580853986429,214.4335070582294,227.2348752316827
9,216.27316779147668,216.27316779147668,228.25893661533874,242.89072587583993
10,235.5795161392913,235.5795161392913,283.14631982846515,296.9972885821393
11,283.1535244739355,283.1535244739355,296.9972885821393,316.4716964282214
12,293.7360479976499,293.7360479976499,316.4716964282214,331.72303319829484
13,328.375982818273,328.375982818273,337.4500332792136,351.52308442092897
14,365.7348128440315,365.7348128440315,414.16914666072216,426.9473852680138
15,373.55871238839967,414.16914666072216,426.9473852680138,440.58901063444574
16,391.93630139649673,416.5511858631879,459.185283615941,472.8019600500106
17,403.711718879376,459.185283615941,472.8019600500106,489.52254853858915
18,434.9658732198073,460.5944748941279,489.52254853858915,507.4796640453148
19,449.007472343298,463.4759374335614,507.4796640453148,523.4679364423238
20,463.96484428303665,482.5851876572013,523.4679364423238,539.5802722555914
21,480.7273234393012,498.9393513487901,539.5802722555914,554.3130818123747
22,524.69451458085,524.69451458085,554.3130818123747,572.0802767039004
23,561.9662211606167,561.9662211606167,576.4049770014864,593.5573400215019
24,592.8119822800828,592.8119822800828,596.0419613112274,606.914162681608
25,633.3929791506584,633.3929791506584,647.594391151376,659.3682368581335
26,665.1892019131184,665.1892019131184,672.9162804635049,685.4434066954137
27,678.7949724487974,678.7949724487974,685.4434066954137,702.5829033007886
28,714.5705171737029,714.5705171737029,721.5307920180602,736.0789904819031
29,760.564411783598,760.564411783598,762.3795588131194,778.1895856291264
30,797.7069135108242,797.7069135108242,799.3614880510364,813.2553886598549
31,825.08984778777,825.08984778777,847.6428458946061,857.1665823896517
32,834.4300567725297,847.6428458946061,865.8576970323895,883.1147510997081
33,852.5336470070919,865.8576970323895,883.1147510997081,899.3026591795668
34,864.0490900258737,868.2829041499411,899.3026591795668,917.9419273318886
35,908.1712240600929,908.1712240600929,917.9419273318886,927.2124079007527
36,921.6836613728824,921.6836613728824,932.3259257338879,948.9524043500877
37,937.9928739267815,937.9928739267815,948.9524043500877,969.834884500477
38,952.0167047799935,952.0167047799935,1009.5461754035275,1020.8097843389575
39,967.3805021625537,1009.5461754035275,1020.8097843389575,1038.5724813427146
40,988.4741846091948,1016.9209870293669,1038.5724813427146,1052.1764292690473
41,999.0461560066511,1016.9740375705879,1052.1764292690473,1066.717264592644
42,1013.3874138859259,1017.9497809612789,1066.717264592644,1082.6882641682855
43,1047.3183327245915,1047.3183327245915,1082.6882641682855,1102.9776765423246
44,1071.6142397874225,1071.6142397874225,1102.9776765423246,1117.4843364726441
45,1110.6660539669276,1110.6660539669276,1122.9382466210336,1139.8796708980392
46,1156.4306696393558,1156.4306696393558,1160.773009254975,1179.3829005182595
47,1185.4140866899143,1185.4140866899143,1191.4987416439533,1204.1455764901914
48,1214.616443268293,1214.616443268293,1227.9694294658418,1241.2304531117616
49,1257.0373029783252,1257.0373029783252,1262.554724886292,1286.6814086716568
50,1311.2026020437409,1311.2026020437409,1331.3337179465168,1349.2577805727924
51,1324.3183754300424,1331.3337179465168,1349.2577805727924,1368.3673355444605
52,1347.5153718394815,1347.5153718394815,1369.685418512135,1385.4013954358202
53,1381.2345433748817,1381.2345433748817,1390.1883818803708,1408.7259639490608
54,1408.1080534282307,1408.1080534282307,1413.359913083039,1430.99871732636
55,1416.5292918868033,1416.5292918868033,1430.99871732636,1449.6512494265855
56,1438.5647952882505,1438.5647952882505,1449.6512494265855,1467.3992212807252
57,1479.8392075688823,1479.8392075688823,1485.2856251748924,1500.4680613750274
58,1491.4671498625578,1491.4671498625578,1500.4680613750274,1515.6720190459025
59,1510.5830287018703,1510.5830287018703,1522.1828174547763,1537.6984423811125
60,1520.996178134203,1522.1828174547763,1539.4095267424775,1561.014419089611
61,1536.824524755092,1539.4095267424775,1561.014419089611,1576.5148153047576
62,1551.8067353422944,1551.8067353422944,1576.5148153047576,1594.168089696692
63,1607.32387188618,1607.32387188618,1639.3478978712674,1655.934674058719
64,1662.9715436335352,1662.9715436335352,1663.871327100315,1681.6593786392366
65,1682.8763637040734,1682.8763637040734,1706.777087736575,1719.4610344535063
66,1701.117414168049,1706.777087736575,1719.4610344535063,1741.0575351362274
67,1748.0489683172807,1748.0489683172807,1749.5532372467633,1761.3758767567858
68,1786.5578623919037,1786.5578623919037,1789.0759462679207,1806.7689792024112
69,1839.2914064346603,1839.2914064346603,1843.6797054601518,1857.1240081132626
70,1877.0252102330035,1877.0252102330035,1908.3426213215503,1921.7573450469597
71,1904.049000895766,1908.3426213215503,1921.7573450469597,1936.2395646328594
72,1922.2708036708016,1922.2708036708016,1936.2395646328594,1952.816036630212
73,1945.4058554799685,1945.4058554799685,1952.816036630212,1969.263959533777
74,1959.606022424607,1959.606022424607,1975.29245840711,1991.5008781105412
75,1973.8946365932977,1975.29245840711,1991.5008781105412,2008.7168583617345
76,1995.1982132660255,1995.1982132660255,2008.7168583617345,2025.1224689314265
77,2049.066034379488,2049.066034379488,2051.438369380525,2066.5621996883747
78,2066.1040001522238,2066.1040001522238,2067.8654910463033,2079.064362234299
79,2113.9028272097057,2113.9028272097057,2120.085225781121,2138.8353773666618
80,2167.778456456007,2167.778456456007,2174.234907349659,2192.140614946397
81,2176.8092180026033,2176.8092180026033,2194.872946301141,2216.6439026813814
82,2213.390440572584,2213.390440572584,2226.9897330382705,2240.2650354073653
83,2232.3137087975138,2232.3137087975138,2240.2650354073653,2259.6213582299847
84,2263.2927837877496,2263.2927837877496,2275.9036300952916,2285.6810510849314
85,2277.5423293048175,2277.5423293048175,2285.6810510849314,2301.2553091200034
86,2286.7395980834976,2286.7395980834976,2312.299075259598,2327.8485519970372
87,2310.6517117931544,2312.299075259598,2327.8485519970372,2348.958277053868
88,2364.094324014689,2364.094324014689,2364.73334309464,2380.2899197281986
89,2418.8172937152685,2418.8172937152685,2426.2170628890785,2443.5420902572378
90,2450.711541985919,2450.711541985919,2455.486442810527,2475.55768944731
91,2497.6576521271113,2497.6576521271113,2517.6887260172634,2533.191779353179
92,2544.7972636176487,2544.7972636176487,2548.487180372527,2564.234883766984
93,2576.7413996708965,2576.7413996708965,2618.9745177096215,2636.283023939415
94,2605.073022556552,2618.9745177096215,2636.283023939415,2651.0935504567583
95,2629.197359086619,2633.3041419197584,2651.0935504567583,2672.864843993041
96,2662.737723556944,2662.737723556944,2672.864843993041,2685.3654876695014
97,2677.6503191169227,2677.6503191169227,2692.707191796452,2713.135113604279
98,2697.2773566627147,2697.2773566627147,2713.135113604279,2728.43159919856
99,2712.965410668265,2712.965410668265,2728.4390493344313,2746.4580941355416
100,2736.121328345901,2736.121328345901,2746.4580941355416,2764.0800677413004
101,2786.5396630761725,2786.5396630761725,2787.953703163654,2801.2811129759875
102,2817.8276881321603,2817.8276881321603,2821.9797794576193,2838.301525283557
103,2862.5417903694,2862.5417903694,2875.2780517268634,2893.6047923394326
104,2900.058034230242,2900.058034230242,2900.456725504884,2915.353914335078
105,2944.6618741205057,2944.6618741205057,2952.674954659301,2971.5777532164407
106,2998.1752384528486,2998.1752384528486,3005.8698203530103,3019.288106852088
107,3037.351363586944,3037.351363586944,3058.5857970707225,3075.250304741277
108,3082.7880092192895,3082.7880092192895,3087.076992522692,3103.14425912586
109,3122.9205429306535,3122.9205429306535,3129.054658346312,3142.417785194909
110,3161.809331255774,3161.809331255774,3163.4107385068505,3174.394379788793
111,3179.0356198316545,3179.0356198316545,3182.6018287500056,3202.5189275995467
112,3189.544019582469,3189.544019582469,3202.5189275995467,3225.524895519642
113,3236.662108606838,3236.662108606838,3237.020070127071,3252.604652844616
114,3285.1092040299345,3285.1092040299345,3285.3580333378636,3296.975149190159
115,3320.162145990907,3320.162145990907,3326.0381157861593,3340.366522356309
116,3344.5960819700745,3344.5960819700745,3346.1901606775828,3358.8538534724894
117,3381.364083963701,3381.364083963701,3384.7648590329723,3401.232382021936
118,3425.707359260677,3425.707359260677,3441.4226418136045,3456.177519873175
119,3445.1857192867105,3445.1857192867105,3463.451291890735,3475.8837809918264
120,3480.310352788943,3480.310352788943,3486.3830696835907,3501.4501800016546
121,3503.252015098367,3503.252015098367,3532.9743877558217,3549.888731771425
122,3557.6809378308276,3557.6809378308276,3581.806926647306,3597.745953108392
123,3612.3612361226205,3612.3612361226205,3626.857096916959,3642.997173199591
124,3666.6937339201304,3666.6937339201304,3667.7869456740345,3683.6434123139825
125,3720.2480882415202,3720.2480882415202,3733.811412096389,3746.1895769935436
126,3750.0425844676106,3750.0425844676106,3755.53720684752,3774.2056898905275
127,3803.676347227969,3803.676347227969,3825.631605534334,3843.397799925001
128,3859.348638036514,3859.348638036514,3882.478585938364,3900.9089210572474
129,3909.4343955250106,3909.4343955250106,3913.7979069397247,3925.648671115187
130,3918.9769977583733,3918.9769977583733,3975.4358057256472,3989.036923991522
131,3969.0025116650036,3975.4358057256472,3989.036923991522,3999.4473285244067
132,4019.8277712463077,4019.8277712463077,4025.3839435705945,4036.6566550711677
133,4064.9003728654457,4064.9003728654457,4069.3392703847408,4086.3237093199823
134,4099.014060293043,4099.014060293043,4111.453846650083,4129.118901055463
135,4150.045695944382,4150.045695944382,4158.569227686646,4176.973960026147
136,4195.9897986143615,4195.9897986143615,4208.454516180672,4222.549338518319
137,4228.995351413749,4228.995351413749,4230.086954008487,4248.063359252197
138,4279.1066595140355,4279.1066595140355,4285.020846101523,4300.865065209517
139,4307.922501856321,4307.922501856321,4310.467431881342,4321.8816635669245
140,4343.864205260023,4343.864205260023,4345.020153353266,4360.40450384908
141,4371.304604236553,4371.304604236553,4372.518195870503,4387.447974513143
142,4385.219629323968,4385.219629323968,4387.447974513143,4402.551103738461
143,4439.766277342261,4439.766277342261,4446.851114679789,4461.908244270999
144,4465.164501166065,4465.164501166065,4466.948427733346,4480.9519541811205
145,4504.330389343129,4504.330389343129,4515.4061436113625,4532.174951140833
146,4525.466233907203,4525.466233907203,4560.1645300984255,4576.182810954107
147,4575.800114474039,4575.800114474039,4577.548366028191,4592.187926605187
148,4591.795177063168,4591.795177063168,4593.417185105938,4604.695024377228
149,4620.327111993741,4620.327111993741,4625.684999349732,4641.659081413132
150,4663.285785279079,4663.285785279079,4671.008570371126,4685.363947506624
151,4704.379643099969,4704.379643099969,4718.702206363465,4727.319375322486
152,4731.249996235664,4731.249996235664,4736.354231797578,4751.79061962677
153,4747.807071250697,4747.807071250697,4766.033334286294,4783.804721750679
154,4766.833096307829,4766.833096307829,4783.804721750679,4800.165166776078
155,4791.690474402197,4791.690474402197,4800.5438374492205,4811.959135385723
156,4819.218603922396,4819.218603922396,4833.046417785275,4850.772831347682
157,4831.429023430351,4833.046417785275,4855.2626410205585,4870.345207939317
158,4856.070716786856,4856.070716786856,4870.345207939317,4885.367103004864
159,4871.561185841814,4871.561185841814,4885.367103004864,4899.824736889704
160,4893.075597863743,4893.075597863743,4899.824736889704,4916.5247116407745
161,4945.01960806976,4945.01960806976,5014.731232126521,5034.968671487308
162,4969.743807701492,5014.731232126521,5034.968671487308,5043.995709154646
163,4986.722272666662,5016.324791624923,5043.995709154646,5060.6746437982465
164,4998.169272064827,5042.65521866233,5060.6746437982465,5079.56599096402
165,5037.234238014609,5043.377553394225,5079.56599096402,5096.005982557488
166,5053.686592821585,5053.686592821585,5096.005982557488,5117.245503124948
167,5083.641050139999,5083.641050139999,5117.245503124948,5131.684601179997
168,5111.64637211793,5111.64637211793,5131.684601179997,5149.261147667664
169,5144.745617857233,5144.745617857233,5154.286376613151,5169.8353330855025
170,5188.686600475515,5188.686600475515,5204.950494106063,5219.652652757184
171,5198.356651011115,5204.950494106063,5219.652652757184,5236.267197089607
172,5244.438269795854,5244.438269795854,5258.169488007652,5273.229133821185
173,5272.681459993727,5272.681459993727,5277.368817220077,5294.600391587347
174,5307.830650667006,5307.830650667006,5338.837355631746,5358.0798974014015
175,5317.033168018887,5338.837355631746,5377.248918408815,5392.018299646936
176,5368.8384899049415,5377.248918408815,5398.354513940723,5416.262512865196
177,5383.058371343913,5398.354513940723,5416.262512865196,5426.1996267935965
178,5425.551759189648,5425.551759189648,5445.742871756142,5463.9727035637525
179,5461.427276378235,5461.427276378235,5463.9727035637525,5482.701574962801
180,5472.54257519933,5472.54257519933,5482.701574962801,5496.542768717046
181,5499.041551985592,5499.041551985592,5501.1331438029365,5516.809254244807
182,5513.716025417528,5513.716025417528,5517.302539309241,5534.437219680702
183,5556.844873362323,5556.844873362323,5571.402628509341,5584.603385337979
184,5578.481710934825,5578.481710934825,5584.603385337979,5604.324126461636
185,5590.069403779618,5590.069403779618,5611.268202921936,5627.854640257216
186,5615.805916644746,5615.805916644746,5627.854640257216,5640.4621561350605
187,5639.45238292048,5639.45238292048,5653.4187755047815,5668.465666920813
188,5684.459744500311,5684.459744500311,5686.830972767111,5700.94405692006
189,5699.725490243554,5699.725490243554,5705.805862947776,5718.995279394903
190,5733.84047825098,5733.84047825098,5736.7703039024855,5751.198897110699
191,5769.557850792838,5769.557850792838,5781.595684790096,5798.196684023778
192,5818.867842992011,5818.867842992011,5820.8122418491785,5837.941053400768
193,5866.7428057046445,5866.7428057046445,5891.661980518167,5907.216766187821
194,5887.114531156737,5891.661980518167,5914.022276347798,5927.617840032428
195,5931.857179463926,5931.857179463926,5937.434109996338,5956.644160966515
196,5969.834202007716,5969.834202007716,5992.803370367384,6013.259158022443
197,6003.087854758287,6003.087854758287,6013.259158022443,6027.970838318956
198,6055.52859389515,6055.52859389515,6065.194839575487,6086.3233591945955
199,6067.810579846523,6067.810579846523,6086.3233591945955,6099.753753620976
200,6097.164856778493,6097.164856778493,6124.596846399034,6138.027423940663
201,6141.799613552968,6141.799613552968,6153.092160238853,6168.350691894145
202,6156.8814424642505,6156.8814424642505,6168.350691894145,6186.281552450844
203,6204.826340217157,6204.826340217157,6207.698103207978,6220.992312805181
204,6252.212930316461,6252.212930316461,6272.339850080356,6287.13470611316
205,6273.71203972222,6273.71203972222,6288.285970880831,6305.291272045313
206,6326.504232452334,6326.504232452334,6331.532901867606,6344.104667939835
207,6342.246467943138,6342.246467943138,6360.318998028846,6377.324932845336
208,6393.165380447077,6393.165380447077,6434.8497980377,6449.450013703888
209,6403.056345848425,6434.8497980377,6449.450013703888,6465.590889274867
210,6445.2036788846035,6445.2036788846035,6465.590889274867,6480.343863015712
211,6499.505264076207,6499.505264076207,6499.9594028943975,6513.12001790056
212,6527.597761274323,6527.597761274323,6558.98329508162,6569.843701590961
213,6578.0025893823395,6578.0025893823395,6607.762380284744,6619.203227316098
214,6620.833617366584,6620.833617366584,6629.913578375894,6643.049659044869
215,6647.252117670532,6647.252117670532,6659.668723879288,6679.038236222556
216,6674.766735811039,6674.766735811039,6679.038236222556,6697.456679886584
217,6689.203108417619,6689.203108417619,6699.193333110411,6714.13722379406
218,6741.100275175367,6741.100275175367,6759.990480938903,6774.195481358219
219,6771.728211523923,6771.728211523923,6800.560798900009,6812.45760576776
220,6827.105907958078,6827.105907958078,6848.1189079068035,6863.550031178019
221,6875.251350605562,6875.251350605562,6876.878042554044,6894.261763266745
222,6923.304795270529,6923.304795270529,6936.022675242473,6952.072896451141
223,6937.113557345943,6937.113557345943,6952.072896451141,6966.769448891679
224,6987.376810826615,6987.376810826615,6997.153318465558,7014.930874755106
225,6998.086722695168,6998.086722695168,7014.930874755106,7030.68927718849
226,7015.114054059582,7015.114054059582,7036.517107726729,7051.016000951946
227,7050.265550253699,7050.265550253699,7074.581635050293,7092.694949916884
228,7094.910996757072,7094.910996757072,7102.417647980494,7118.268794136933
229,7142.258930500259,7142.258930500259,7144.566993499832,7156.575379051343
230,7187.322102646801,7187.322102646801,7194.080551652301,7207.572681599295
231,7213.896244347445,7213.896244347445,7218.476607822284,7235.410603297788
232,7242.930899246639,7242.930899246639,7251.676407439831,7269.78118696359
233,7286.100187272353,7286.100187272353,7292.435725035711,7308.092933106952
234,7312.950026069819,7312.950026069819,7316.952440637169,7326.775389147672
235,7351.432890448808,7351.432890448808,7355.730103880076,7371.768032336304
236,7383.827358092236,7383.827358092236,7409.412240088767,7426.542069067794
237,7434.623441351242,7434.623441351242,7435.879008327361,7447.598704152297
238,7485.454028402619,7485.454028402619,7522.978986372343,7535.291518540448
239,7509.829172048052,7522.978986372343,7535.291518540448,7553.065441972972
240,7563.299935984135,7563.299935984135,7579.808444376464,7595.689323651523
241,7609.127164434408,7609.127164434408,7609.88583807003,7629.257785210891
242,7624.199122695471,7624.199122695471,7636.40676652471,7645.895484929131
243,7649.139911383905,7649.139911383905,7649.383521480664,7663.715159754775
244,7700.466833001274,7700.466833001274,7705.254790578708,7721.21034294296
245,7744.273716371037,7744.273716371037,7769.878372207847,7786.6256173551365
246,7794.238641390643,7794.238641390643,7816.911605820432,7830.756474201654
247,7827.391602510854,7827.391602510854,7857.929484051574,7873.443288873795
248,7847.359772709502,7857.929484051574,7880.6156789705865,7897.718293818114
249,7871.026488041905,7880.6156789705865,7897.718293818114,7910.039635001222
250,7912.946598543064,7912.946598543064,7913.633850441979,7930.0155053686385
251,7943.029533496275,7943.029533496275,7960.413334204455,7974.559077123778
252,7965.932809569032,7965.932809569032,7974.559077123778,7991.577712309589
253,8018.390110745048,8018.390110745048,8037.611233440632,8051.3731799336365
254,8066.280708726109,8066.280708726109,8069.637086896984,8084.6974823348255
255,8114.844088066512,8114.844088066512,8143.653173073353,8166.184676252498
256,8126.146009146364,8143.653173073353,8173.175916393302,8189.612833109106
