# file created by code in harbour_fns_1896438.jl
# file created on 2026-03-09 at 15:40:00
# parameter: seed = 1896610
# parameter: T = 30000.0
# parameter: lower_interarrival = 7.8
# parameter: upper_interarrival = 55.8
# parameter: mean_process_times = [11.0, 16.0]
# parameter: max_queue = [9223372036854775807, 4]
# parameter: time_units = hours
id,arrival_time,start_service_times,start_service_times,completion_time
1,0.0,0.0,1.0447468932030397,13.343644117086933
2,17.49484212729845,17.49484212729845,28.070167318311725,41.80534757114079
3,61.924717071871015,61.924717071871015,66.3056009453685,83.24884105485073
4,87.50817161832367,87.50817161832367,100.05225294393813,115.29450015427653
5,108.75456164355491,108.75456164355491,123.97416733595655,143.54806676595555
6,128.98632849624565,128.98632849624565,143.54806676595555,160.59484408651699
7,169.93725705330104,169.93725705330104,189.90014962727128,207.40414755148674
8,207.15470132776164,207.15470132776164,210.76422624707675,227.21491062793916
9,233.36341983658306,233.36341983658306,236.00873163973458,250.59300004027827
10,276.39312502834844,276.39312502834844,283.7154972175059,295.8519348835066
11,294.70940435547027,294.70940435547027,310.52103989744654,330.4682735807031
12,341.66866261095834,341.66866261095834,346.48818678076697,368.6530545970785
13,369.9545057453573,369.9545057453573,377.6576930480593,388.0074226935757
14,401.0315287424574,401.0315287424574,410.90861387596897,427.7703594646494
15,446.5435373222643,446.5435373222643,453.17573900940516,472.12209031208994
16,498.7668430278667,498.7668430278667,500.60373592494403,509.904681930593
17,547.7087089838296,547.7087089838296,575.6133225185052,594.1905489788576
18,567.3435669947413,575.6133225185052,594.1905489788576,607.8947921232162
19,590.2684060944956,590.2684060944956,607.8947921232162,628.9474602107332
20,604.47913660222,604.47913660222,641.3591105807097,653.643283433378
21,647.6061931904585,647.6061931904585,662.2613796404484,680.0954985083714
22,683.0403054178403,683.0403054178403,724.4818935924274,742.133882745654
23,734.3631066188938,734.3631066188938,744.0631486545035,757.443584550813
24,778.2583845461651,778.2583845461651,804.3886012354544,824.4269999766486
25,833.1570758283523,833.1570758283523,838.8512532177305,858.5850023528178
26,856.1159794934192,856.1159794934192,881.0194030869886,898.6483053486998
27,882.5654977413019,882.5654977413019,901.9179585323398,914.1915379776225
28,928.3806081924132,928.3806081924132,933.5681225695413,949.4999562638347
29,968.103690055472,968.103690055472,977.7741503825191,993.1660661450958
30,1007.8288039601034,1007.8288039601034,1032.0269933979139,1051.2648624837864
31,1053.6800256561773,1053.6800256561773,1093.9130568931937,1113.2931714370673
32,1061.52751982648,1093.9130568931937,1122.259655967988,1137.2444842111197
33,1114.0894102645248,1122.259655967988,1137.2444842111197,1152.4117599657313
34,1138.696725910637,1138.696725910637,1158.3371209651266,1171.372798120316
35,1147.0750735060944,1158.3371209651266,1171.372798120316,1186.9395412465822
36,1163.1015809632324,1163.1015809632324,1186.9395412465822,1198.18267348817
37,1207.7771931017396,1207.7771931017396,1217.7912722161834,1237.5646082809164
38,1246.7343540516342,1246.7343540516342,1299.181905721804,1314.4877341825375
39,1257.9573467105472,1299.181905721804,1332.1828837510923,1344.414656201436
40,1299.2606044897605,1332.1828837510923,1372.883630009423,1390.7080953135141
41,1354.2578126093988,1372.883630009423,1390.7080953135141,1411.0917781973671
42,1403.2895132478993,1403.2895132478993,1418.353010861718,1434.6815598937162
43,1448.3981940930105,1448.3981940930105,1483.9935690542438,1497.7493127721473
44,1480.2790703481528,1483.9935690542438,1497.7493127721473,1518.9644921372212
45,1493.515099174734,1497.743576881355,1518.9644921372212,1538.4409767417224
46,1547.3700425663,1547.3700425663,1563.389005006016,1580.748701303182
47,1571.0449087117631,1571.0449087117631,1583.611232868751,1596.8951175343386
48,1583.670091218412,1583.670091218412,1596.8951175343386,1614.4797854688393
49,1608.0072554506548,1608.0072554506548,1617.5001206332845,1630.4554583213228
50,1641.8741859836157,1641.8741859836157,1674.8028268637233,1695.217825040388
51,1682.4586588622126,1682.4586588622126,1695.217825040388,1712.5452337069592
52,1728.6285956934712,1728.6285956934712,1734.7666326645856,1749.8864101701756
53,1748.9596015275556,1748.9596015275556,1787.3375698733787,1801.8903195084763
54,1757.032546394209,1787.3375698733787,1801.8903195084763,1818.0744068033762
55,1770.6537296065364,1793.5121611808972,1818.0744068033762,1836.948322961355
56,1818.7421482654786,1818.7421482654786,1836.948322961355,1851.9413242401838
57,1853.633807302002,1853.633807302002,1858.9146940281855,1880.2442971564567
58,1874.0333274169116,1874.0333274169116,1880.2442971564567,1892.9579679453461
59,1898.9562422753615,1898.9562422753615,1906.2085762010681,1923.1640051695567
60,1951.4759725217734,1951.4759725217734,1970.4844805477262,1989.1270046970678
61,1981.1632767987082,1981.1632767987082,1989.1270046970678,2007.6370748370077
62,1997.5768266348646,1997.5768266348646,2013.4571700277463,2030.744875324561
63,2052.0061538094324,2052.0061538094324,2086.6448186555895,2102.365760470136
64,2094.4769200519486,2094.4769200519486,2102.435180163747,2117.0979640377845
65,2125.300524932025,2125.300524932025,2129.637207903751,2150.1185583165097
66,2166.720859586904,2166.720859586904,2171.6454561378105,2189.9988699076944
67,2211.38280532143,2211.38280532143,2211.5072879604677,2224.6582189858254
68,2221.634039296395,2221.634039296395,2226.286633917353,2247.320416687966
69,2274.2047989570947,2274.2047989570947,2285.1737628619444,2302.202610898742
70,2313.455398256047,2313.455398256047,2319.9300422352726,2334.3414239560816
71,2337.4685097159236,2337.4685097159236,2338.8669133504686,2358.276263445734
72,2384.5682579583636,2384.5682579583636,2399.660333413768,2415.425223503268
73,2405.919326829306,2405.919326829306,2429.8542834068408,2444.3524781325
74,2434.089004416442,2434.089004416442,2461.0984152610927,2478.6994023024786
75,2482.813626628734,2482.813626628734,2484.2561507299174,2495.309469173518
76,2509.3852915749844,2509.3852915749844,2516.349836363709,2526.11558117057
77,2544.3957656375296,2544.3957656375296,2547.5358937512246,2561.09417625072
78,2585.9912341434747,2585.9912341434747,2600.6191588893735,2614.006179848131
79,2608.0641588298704,2608.0641588298704,2614.66248342183,2628.496429448634
80,2655.9363852776796,2655.9363852776796,2663.7893256934262,2678.642677008099
81,2710.493331744392,2710.493331744392,2724.8819691351773,2739.4257326976676
82,2727.8072167700448,2727.8072167700448,2739.4257326976676,2753.112362914836
83,2783.0886418602413,2783.0886418602413,2784.136935374455,2805.624694069244
84,2825.0560458771874,2825.0560458771874,2829.2320076770347,2845.5046269968093
85,2879.0796732083063,2879.0796732083063,2881.7865775565074,2900.2735720902883
86,2923.843434102461,2923.843434102461,2959.580525287207,2975.893971918052
87,2941.4379638746195,2959.580525287207,2975.893971918052,2989.217821543275
88,2954.7017809231243,2971.343773507479,2989.217821543275,3005.5063505659814
89,2981.2777414684965,2981.2777414684965,3005.5063505659814,3022.000563069448
90,3003.810877630344,3003.810877630344,3022.000563069448,3036.2409336466308
91,3047.947203102424,3047.947203102424,3052.901291285752,3073.4860557614916
92,3063.50679000576,3063.50679000576,3073.4860557614916,3090.923339474395
93,3095.582721612504,3095.582721612504,3108.4150063268744,3122.87768636699
94,3136.1769435950323,3136.1769435950323,3139.367347711413,3153.274193966584
95,3144.0744989542336,3144.0744989542336,3155.8902582648884,3167.149609584593
96,3170.164235237775,3170.164235237775,3175.209169154847,3196.3226614435694
97,3198.292686263731,3198.292686263731,3218.495131802463,3235.905430004625
98,3239.7076606558785,3239.7076606558785,3294.197839033889,3308.04045267187
99,3253.308815628126,3294.197839033889,3308.04045267187,3326.5562979799597
100,3262.4143217152896,3298.704997274214,3326.5562979799597,3337.2813307537363
101,3303.331205417781,3309.8282475592523,3337.2813307537363,3353.6456640916463
102,3348.716252579391,3348.716252579391,3353.6456640916463,3368.9327514706993
103,3388.6195893013833,3388.6195893013833,3390.653038956218,3408.1260784713713
104,3433.618529157164,3433.618529157164,3464.2625065457705,3478.8975287372764
105,3449.4801739723493,3464.2625065457705,3478.8975287372764,3492.841148854108
106,3476.481192449792,3476.481192449792,3492.841148854108,3508.65284080215
107,3509.8548448937454,3509.8548448937454,3524.917633662786,3538.3268682686703
108,3519.598268715695,3524.917633662786,3538.3268682686703,3557.3493440916573
109,3546.9955549681563,3546.9955549681563,3557.3493440916573,3572.7518180204797
110,3596.9739111177505,3596.9739111177505,3602.5212939043845,3616.6871746214993
111,3621.2446713685117,3621.2446713685117,3656.054421919005,3672.4215845804847
112,3668.046876588041,3668.046876588041,3673.2178995379213,3686.675936801993
113,3707.7534400776203,3707.7534400776203,3741.9116762307467,3763.542030569127
114,3734.2018247463106,3741.9116762307467,3763.542030569127,3778.55190762491
115,3742.698043088461,3753.9542220328826,3778.55190762491,3795.9165451502795
116,3767.8564118833615,3767.8564118833615,3795.9165451502795,3817.375248082292
117,3787.9231502363573,3787.9231502363573,3817.375248082292,3830.9070762616884
118,3825.064134303745,3825.064134303745,3830.9070762616884,3848.3008622188913
119,3879.4510206369214,3879.4510206369214,3892.265202085132,3909.936677002533
120,3898.8915869559087,3898.8915869559087,3920.027980671916,3936.0939810715004
121,3912.1082269470535,3920.027980671916,3936.0939810715004,3951.0244554683463
122,3925.2166786343346,3925.741645973566,3951.0244554683463,3968.599865941156
123,3952.1745358140715,3952.1745358140715,3968.599865941156,3983.3727836653497
124,3976.0170133916336,3976.0170133916336,3984.185183861192,4002.356682231757
125,4018.439356554008,4018.439356554008,4025.15266275264,4044.7627937748425
126,4035.735545464012,4035.735545464012,4102.743878769525,4118.466118357944
127,4062.636281823886,4102.743878769525,4121.367231960535,4133.4890073666775
128,4088.218098896164,4121.367231960535,4133.4890073666775,4148.002524292825
129,4135.0660825200985,4135.0660825200985,4148.002524292825,4159.758148071837
130,4160.365793610158,4160.365793610158,4161.150334299779,4176.857644584684
131,4197.765359783464,4197.765359783464,4223.99917595943,4239.574766010497
132,4210.947945173923,4223.99917595943,4239.574766010497,4259.094526998519
133,4260.6826870722525,4260.6826870722525,4272.870057549021,4288.870148954249
134,4297.142984420452,4297.142984420452,4309.002357948065,4324.053826485198
135,4313.687608306811,4313.687608306811,4324.053826485198,4345.344887484236
136,4354.416324760614,4354.416324760614,4358.581812565026,4374.016458737925
137,4370.947027205445,4370.947027205445,4376.710103108836,4388.204030986353
138,4390.971288186974,4390.971288186974,4394.453244045098,4406.2863993758565
139,4435.791783540817,4435.791783540817,4439.981386845231,4455.888163625862
140,4460.224618376974,4460.224618376974,4465.770137900259,4478.60233052571
141,4509.857186959442,4509.857186959442,4510.969294710243,4533.715141347333
142,4550.54895776274,4550.54895776274,4563.514498422989,4583.5915753881245
143,4575.7983508305715,4575.7983508305715,4583.5915753881245,4598.5030258861125
144,4601.019804947227,4601.019804947227,4644.578447313219,4662.386657919113
145,4615.759833417689,4644.578447313219,4662.386657919113,4676.812331971131
146,4658.596197317168,4658.596197317168,4676.812331971131,4688.924517350002
147,4702.223217307228,4702.223217307228,4716.979988539599,4733.401050135585
148,4730.244371561024,4730.244371561024,4741.544613968057,4759.087888980942
149,4779.518662395311,4779.518662395311,4805.8984964194715,4821.45575447401
150,4821.592659191229,4821.592659191229,4833.768322757133,4847.083257865469
151,4840.284772884565,4840.284772884565,4853.1640627830075,4863.7397775428835
152,4856.972522796808,4856.972522796808,4863.7397775428835,4880.082189461036
153,4865.184476479258,4865.184476479258,4880.082189461036,4891.888529428602
154,4884.563702357291,4884.563702357291,4907.933952466914,4925.591239930436
155,4907.812523873704,4907.933952466914,4925.591239930436,4942.538583756105
156,4922.894700789305,4922.894700789305,4942.538583756105,4960.025127559212
157,4975.274468958754,4975.274468958754,4980.024690549991,4993.918949766086
158,5029.379253741461,5029.379253741461,5035.914343832191,5055.1245747248
159,5077.148678027214,5077.148678027214,5080.464871858983,5093.958736027011
160,5086.441570226268,5086.441570226268,5100.418224172318,5113.305903968565
161,5111.2013249419315,5111.2013249419315,5126.646330536002,5137.1807468253555
162,5129.042846722997,5129.042846722997,5144.418228048932,5160.96310538739
163,5145.146893479365,5145.146893479365,5172.3265843173385,5186.303956123861
164,5186.44166721016,5186.44166721016,5195.251612481832,5214.739536574247
165,5231.84370261816,5231.84370261816,5233.377025664876,5248.607975085426
166,5260.565623031245,5260.565623031245,5287.367881981383,5305.421545144507
167,5277.626185332761,5287.367881981383,5305.421545144507,5322.607793232833
168,5291.366386377129,5301.150978040019,5322.607793232833,5337.087015458977
169,5340.118396172956,5340.118396172956,5347.483574596675,5355.513652683776
170,5386.192976975713,5386.192976975713,5387.010335839829,5399.036947279044
171,5416.827933146692,5416.827933146692,5418.944113774128,5433.299102327496
172,5452.736774559187,5452.736774559187,5482.0495797662725,5500.8187144824415
173,5462.941914332016,5482.0495797662725,5500.8187144824415,5519.011142030673
174,5501.900699470973,5501.900699470973,5519.011142030673,5531.26721312553
175,5544.296056493546,5544.296056493546,5562.942565668486,5573.646819165
176,5565.660238499545,5565.660238499545,5573.646819165,5587.029498155087
177,5614.888527995199,5614.888527995199,5635.419037902976,5653.29230024579
178,5669.187015412117,5669.187015412117,5670.761875969528,5688.658769318476
179,5714.474342263025,5714.474342263025,5726.167390877699,5743.3687206537215
180,5728.651339851108,5728.651339851108,5757.477167757003,5770.2431274349165
181,5753.924905938274,5757.477167757003,5770.2431274349165,5787.145275289196
182,5777.427532685005,5777.427532685005,5787.145275289196,5801.604239416206
183,5801.843215061984,5801.843215061984,5810.220570706049,5823.964661022256
184,5825.151392565762,5825.151392565762,5825.193415775987,5842.392914687004
185,5837.70719974861,5837.70719974861,5854.401409048819,5867.834130267585
186,5872.387220383367,5872.387220383367,5873.450403514552,5887.570290658784
187,5886.4988763744395,5886.4988763744395,5899.296341515787,5914.8581413963575
188,5924.116803636689,5924.116803636689,5927.531386010688,5947.559255576057
189,5953.430033958882,5953.430033958882,5967.767504006917,5981.90190764739
190,5967.920194562567,5967.920194562567,5992.756671068375,6007.498226171939
191,5998.568403198952,5998.568403198952,6007.498226171939,6030.760129506891
192,6026.07384307236,6026.07384307236,6030.760129506891,6048.64999548367
193,6060.809237035145,6060.809237035145,6061.35940590275,6075.877925841569
194,6086.638316254743,6086.638316254743,6100.696963722311,6117.520591434361
195,6111.061117793768,6111.061117793768,6122.817416604621,6142.637553436496
196,6133.110680760902,6133.110680760902,6147.714554237299,6163.927709733527
197,6148.251451849285,6148.251451849285,6163.927709733527,6174.139815029628
198,6191.735804979714,6191.735804979714,6203.748149491777,6217.915809183207
199,6224.423059947539,6224.423059947539,6226.882793362235,6249.144995419561
200,6246.551339468029,6246.551339468029,6253.066928428442,6274.591484778209
201,6290.272153527115,6290.272153527115,6293.64434506814,6313.2819851907325
202,6312.1441348031385,6312.1441348031385,6316.485043240564,6325.445065463974
203,6333.290329444378,6333.290329444378,6338.016017729325,6352.714700385046
204,6372.442416820398,6372.442416820398,6376.5793660594445,6396.532121567061
205,6381.4630927501585,6381.4630927501585,6396.532121567061,6414.844495862515
206,6425.1213734950625,6425.1213734950625,6433.06140601725,6454.160268845512
207,6475.402990740033,6475.402990740033,6479.957663945011,6492.847665305116
208,6488.688592959082,6488.688592959082,6509.569458172349,6525.6946094787645
209,6543.422359137378,6543.422359137378,6543.677105916633,6559.377883898603
210,6578.382785790284,6578.382785790284,6578.877303715146,6595.7996451914505
211,6587.881622609806,6587.881622609806,6595.7996451914505,6613.389036511596
212,6620.342986695648,6620.342986695648,6643.800763606974,6663.457211647388
213,6664.457444734605,6664.457444734605,6669.871915437625,6683.822202633851
214,6703.459784115554,6703.459784115554,6717.626316910584,6732.98773018397
215,6722.529378037504,6722.529378037504,6732.98773018397,6745.325274769906
216,6757.524818413197,6757.524818413197,6779.7272616766195,6793.355205743882
217,6802.718656953045,6802.718656953045,6811.850021294541,6824.372529625078
218,6815.7431289234255,6815.7431289234255,6841.625338008515,6855.424618925219
219,6857.906650617783,6857.906650617783,6859.473481160168,6875.61226893628
220,6910.830845344207,6910.830845344207,6924.675617524512,6938.958097772238
221,6926.174412695659,6926.174412695659,6938.958097772238,6957.300756211986
222,6946.714058067994,6946.714058067994,6957.300756211986,6974.623482041352
223,6991.063170649625,6991.063170649625,6991.275205689065,7004.658337666376
224,7032.934701638202,7032.934701638202,7052.665037380674,7070.433817973977
225,7042.257285248537,7052.665037380674,7070.433817973977,7090.276701140969
226,7064.398298947193,7064.398298947193,7090.276701140969,7106.244760897423
227,7084.264311356576,7084.264311356576,7106.244760897423,7122.383920385599
228,7106.826013223463,7106.826013223463,7122.383920385599,7140.8813839308095
229,7157.194026621045,7157.194026621045,7160.6179555231665,7176.549432968002
230,7182.710896162803,7182.710896162803,7200.2486211413025,7218.840493386988
231,7223.0420621974445,7223.0420621974445,7237.050685304111,7256.697741940211
232,7268.352585736431,7268.352585736431,7273.513458107148,7286.804257169123
233,7281.33040387103,7281.33040387103,7289.378514188483,7310.080794581673
234,7318.972114467243,7318.972114467243,7325.264079589924,7342.095698521202
235,7351.733441760512,7351.733441760512,7365.114174438674,7380.359221096406
236,7370.322154857568,7370.322154857568,7380.359221096406,7400.805348235069
237,7423.592254823897,7423.592254823897,7429.139266967367,7442.400765106263
238,7462.083612212009,7462.083612212009,7462.269640849914,7477.928027667447
239,7495.588341868122,7495.588341868122,7503.602969323038,7518.184196330876
240,7520.176571500463,7520.176571500463,7524.31830974173,7541.534606958091
241,7568.9978740739725,7568.9978740739725,7576.12005407478,7591.76655561879
242,7603.561007809655,7603.561007809655,7612.634013003304,7626.961861867615
243,7624.462439966227,7624.462439966227,7629.097545176698,7646.289865499588
244,7635.655337581919,7635.655337581919,7646.289865499588,7662.337084900232
245,7682.013820251697,7682.013820251697,7692.824959368362,7704.352811149541
246,7737.187297193068,7737.187297193068,7741.954152286031,7755.017784246422
247,7766.154196778725,7766.154196778725,7797.992626105194,7811.797277519967
248,7815.1681201829315,7815.1681201829315,7827.03325767839,7843.535000121694
249,7869.866953019261,7869.866953019261,7873.911986869303,7889.222653547336
250,7900.290389756981,7900.290389756981,7926.202977796997,7942.713692189742
251,7931.343651040274,7931.343651040274,7942.713692189742,7957.305730574724
252,7981.678342323977,7981.678342323977,8019.424401063998,8031.730883406956
253,8011.155535575398,8019.424401063998,8031.730883406956,8044.62585901408
254,8037.274889000904,8037.274889000904,8044.62585901408,8057.25771193174
255,8090.765571244883,8090.765571244883,8110.7465442792945,8124.395901148068
256,8111.619799918888,8111.619799918888,8124.395901148068,8139.604477795031
