# file created by code in harbour_fns_1896438.jl
# file created on 2026-03-09 at 15:39:58
# parameter: seed = 1896579
# parameter: T = 30000.0
# parameter: lower_interarrival = 7.8
# parameter: upper_interarrival = 55.8
# parameter: mean_process_times = [11.0, 16.0]
# parameter: max_queue = [9223372036854775807, 4]
# parameter: time_units = hours
id,arrival_time,start_service_times,start_service_times,completion_time
1,0.0,0.0,2.8008460890646547,18.932671597210973
2,12.981757052579134,12.981757052579134,18.932671597210973,31.894003111512205
3,50.51641786324108,50.51641786324108,67.7243296194068,82.96018441317366
4,84.23160884841379,84.23160884841379,108.77050509849272,121.13127105050259
5,137.47157855798676,137.47157855798676,139.5882003578998,152.61998824631206
6,171.31964386269365,171.31964386269365,174.58397374714605,189.34898081160773
7,188.0795286188288,188.0795286188288,197.63703767705252,214.93488435417947
8,235.726981616339,235.726981616339,248.09238132902829,254.11105186117575
9,288.9806528604354,288.9806528604354,295.03360560697536,308.3051164533327
10,327.4578808193367,327.4578808193367,348.2359813592569,361.6421085973125
11,335.5687932539631,348.2359813592569,361.6421085973125,379.45883896124843
12,378.1644993167866,378.1644993167866,383.23820539122653,403.54174619625246
13,390.766247556036,390.766247556036,403.54174619625246,422.2194409556371
14,428.5368865656421,428.5368865656421,435.49814069601064,449.5750573725307
15,480.16380325532924,480.16380325532924,488.3732898296663,504.185669871054
16,499.11305868942,499.11305868942,576.2036225999724,592.9974217429194
17,530.2525411840213,576.2036225999724,592.9974217429194,608.5163297022173
18,576.0619436056908,592.8886753565727,608.5163297022173,623.0335056128393
19,613.3407370052348,613.3407370052348,624.6595702609677,638.4791574018723
20,655.4077405811146,655.4077405811146,671.2695972497303,683.0289886438914
21,705.6068183565484,705.6068183565484,719.3203225934144,733.7842263490959
22,734.5270825073329,734.5270825073329,736.5212013512876,749.6471785580461
23,789.5754535041683,789.5754535041683,796.7779953602613,813.6663917976355
24,837.4689298208211,837.4689298208211,852.1867870469351,868.1474958362807
25,876.6216553080126,876.6216553080126,888.2018718199804,897.7859685521375
26,889.5463248138549,889.5463248138549,897.7859685521375,915.1525012200613
27,929.0668025670959,929.0668025670959,937.3835711676442,954.849224043426
28,970.2046284613948,970.2046284613948,971.6537068088112,980.4374628214924
29,992.4617437028684,992.4617437028684,1011.5500745977183,1030.1825226138783
30,1047.968791100702,1047.968791100702,1065.323610864086,1081.845191319656
31,1090.0255478094548,1090.0255478094548,1091.141076846359,1115.1830344549985
32,1121.8317766723496,1121.8317766723496,1125.7838279754583,1142.542246825316
33,1138.844253661907,1138.844253661907,1142.542246825316,1160.8845963400329
34,1171.4084117183022,1171.4084117183022,1173.9838748027328,1186.5156799839679
35,1186.9876086537213,1186.9876086537213,1193.3480892056475,1211.7571777830112
36,1206.9457694277698,1206.9457694277698,1216.2602122827811,1232.069081754403
37,1253.9685833559702,1253.9685833559702,1260.0961170975993,1271.4869140428173
38,1280.706979882587,1280.706979882587,1334.361992434578,1350.2170930674406
39,1321.0403184842905,1334.361992434578,1350.2170930674406,1363.7881369644251
40,1351.9116372273534,1351.9116372273534,1363.7881369644251,1377.1299643754255
41,1378.4873094680897,1378.4873094680897,1389.8138246014637,1405.9654263144764
42,1427.5280509186305,1427.5280509186305,1443.5763639166432,1457.162436422332
43,1456.2623440945565,1456.2623440945565,1486.1700062598334,1505.283349404907
44,1498.5116755580214,1498.5116755580214,1505.283349404907,1515.1299280503713
45,1553.6275081599736,1553.6275081599736,1570.1996152929605,1593.721470334383
46,1569.7578857977276,1570.1996152929605,1593.721470334383,1614.3193237413955
47,1591.2412880329418,1591.2412880329418,1614.3193237413955,1627.3335606104406
48,1602.272630826312,1602.272630826312,1629.1529501158457,1646.2575861765913
49,1646.160566687016,1646.160566687016,1651.2444256923525,1667.6780565864
50,1669.9629384819955,1669.9629384819955,1672.762754481066,1687.1604878431535
51,1711.300360626315,1711.300360626315,1723.4034508989137,1737.8827667082776
52,1722.3571756036624,1723.4034508989137,1737.8827667082776,1751.605179814275
53,1776.7018623691977,1776.7018623691977,1780.2384563199744,1792.635301389407
54,1795.5939811194728,1795.5939811194728,1851.3284722100898,1864.5783394791836
55,1808.973804026435,1851.3284722100898,1873.753991299293,1893.3127615189399
56,1841.640508681745,1873.753991299293,1893.3127615189399,1914.8820128758132
57,1872.7004771256481,1876.3017093216283,1914.8820128758132,1932.8783948438354
58,1899.890948645533,1899.890948645533,1932.8783948438354,1948.873804041751
59,1948.2937290429181,1948.2937290429181,1990.443291552671,2000.5649936607927
60,1969.2273012764003,1990.443291552671,2000.5649936607927,2011.60008080584
61,2004.3156211720682,2004.3156211720682,2011.60008080584,2033.3977200139525
62,2031.44447095984,2031.44447095984,2039.7620605786237,2056.5532086269695
63,2073.3700511576935,2073.3700511576935,2082.1367364854905,2098.2551631720175
64,2083.951044387705,2083.951044387705,2098.2551631720175,2114.108362757308
65,2126.8459943577777,2126.8459943577777,2154.85354873012,2173.2533638417835
66,2167.5904582351113,2167.5904582351113,2173.2533638417835,2190.6100246603364
67,2216.7783346451124,2216.7783346451124,2228.1374795976863,2245.341120153585
68,2254.938251925496,2254.938251925496,2270.989449249378,2287.713703928536
69,2291.1720240816753,2291.1720240816753,2291.574546472243,2312.0471157286484
70,2332.756741013155,2332.756741013155,2348.9647801671085,2366.4139601451157
71,2347.9705012046743,2348.9647801671085,2368.664732019241,2387.6290621671246
72,2360.0786044271726,2368.664732019241,2387.6290621671246,2399.1469833991305
73,2393.2492941559694,2393.2492941559694,2399.1469833991305,2417.698822238795
74,2417.9926459500925,2417.9926459500925,2419.120907656307,2434.448419880945
75,2428.150145970421,2428.150145970421,2441.713242230928,2460.062766850073
76,2451.910855225838,2451.910855225838,2460.062766850073,2476.9333017768176
77,2471.6389724461437,2471.6389724461437,2481.8526666593093,2495.020761326717
78,2509.047647079271,2509.047647079271,2532.020184981198,2545.337077243762
79,2558.3749686623605,2558.3749686623605,2558.7712991134795,2574.782161049917
80,2610.837557688948,2610.837557688948,2614.565959973389,2631.282925236499
81,2657.623056006527,2657.623056006527,2671.7995044556164,2688.1808923095214
82,2703.2028268275562,2703.2028268275562,2713.256129741971,2726.9442726420993
83,2726.741818049971,2726.741818049971,2744.86833531157,2761.1147689566137
84,2763.729668246284,2763.729668246284,2790.286850620002,2806.30715402617
85,2777.5933784166195,2790.286850620002,2814.382432089021,2831.887849744318
86,2798.0529410447634,2814.382432089021,2831.887849744318,2851.8953631254108
87,2849.3744437826995,2849.3744437826995,2853.753946488528,2870.551231791909
88,2858.686348817219,2858.686348817219,2891.892809541566,2909.0887340515196
89,2889.0549850792945,2891.892809541566,2909.0887340515196,2923.5551807961474
90,2912.6227536044016,2912.6227536044016,2923.5551807961474,2940.5037029369178
91,2948.6966592000695,2948.6966592000695,2976.4194411052586,2995.9417040391145
92,2983.297907601105,2983.297907601105,3000.523879602265,3013.2727838528326
93,3024.7706250591054,3024.7706250591054,3032.371229605248,3046.6617885020214
94,3066.7712682042165,3066.7712682042165,3069.7415534338916,3091.5107811495704
95,3078.1836427442618,3078.1836427442618,3091.5107811495704,3111.023578076906
96,3128.154160794843,3128.154160794843,3134.462800503056,3149.4040097998063
97,3157.627983436175,3157.627983436175,3163.5013735241696,3174.7752954210355
98,3208.7419283574063,3208.7419283574063,3209.9979665955975,3222.3065013405035
99,3242.8141935131894,3242.8141935131894,3251.916091477418,3272.9218190492857
100,3290.5696782842015,3290.5696782842015,3297.0008613769814,3317.1927100981134
101,3322.895082055048,3322.895082055048,3330.934727422299,3347.0388249975995
102,3360.503350411786,3360.503350411786,3371.3504413201613,3390.6919613962505
103,3371.2613295502338,3371.3504413201613,3390.6919613962505,3408.1699631824904
104,3394.905431448562,3394.905431448562,3408.1699631824904,3425.2267532863084
105,3423.53935963892,3423.53935963892,3436.3000675663648,3445.6829669942417
106,3472.494252422927,3472.494252422927,3481.2651076741945,3498.7443187245185
107,3487.050457498277,3487.050457498277,3501.794985281179,3516.134190184589
108,3505.2093823365713,3505.2093823365713,3516.134190184589,3533.4480769410684
109,3553.739580888677,3553.739580888677,3580.602791552162,3596.1099870721723
110,3564.950975518282,3580.602791552162,3607.4973013626454,3623.6807566259617
111,3605.327218048129,3607.4973013626454,3634.9065959789523,3652.599757692032
112,3654.685057072513,3654.685057072513,3671.772687332807,3687.6886753103627
113,3693.044811436321,3693.044811436321,3693.0543184765315,3711.9877451074985
114,3739.3077921194485,3739.3077921194485,3745.304486738134,3766.751833645606
115,3781.0017903124435,3781.0017903124435,3793.922803537653,3816.849422764113
116,3820.800094420779,3820.800094420779,3866.200990241184,3883.9144466345724
117,3841.347747978709,3866.200990241184,3883.9144466345724,3892.937038224972
118,3884.201184122429,3884.201184122429,3901.3585964449494,3918.9545448130566
119,3933.3427122675516,3933.3427122675516,3953.8521799894693,3965.340751564736
120,3967.0913568403425,3967.0913568403425,3971.653239404372,3987.0199996148685
121,3976.1779095976804,3976.1779095976804,3987.0199996148685,3996.6626803357017
122,3987.0214117309933,3987.0214117309933,3996.6626803357017,4010.058905875635
123,4014.293269702741,4014.293269702741,4014.504771971171,4029.586084462049
124,4067.3777417726997,4067.3777417726997,4080.2876403823366,4101.247654711389
125,4084.867145588107,4084.867145588107,4101.247654711389,4119.446346614685
126,4139.749498689858,4139.749498689858,4140.7206793378755,4159.913571099259
127,4186.810906872942,4186.810906872942,4214.053725197287,4230.174485956035
128,4240.699835152802,4240.699835152802,4258.423720701037,4278.431020545574
129,4274.7341148919395,4274.7341148919395,4279.68404935383,4301.385131964396
130,4302.713974229712,4302.713974229712,4306.973578736443,4321.131045311394
131,4354.8485808448695,4354.8485808448695,4357.53846809744,4378.106379124834
132,4390.970240149455,4390.970240149455,4411.01070102624,4427.62751769016
133,4430.971541769128,4430.971541769128,4443.766780448051,4460.474676485348
134,4461.972025251153,4461.972025251153,4463.767751633851,4481.49782979389
135,4490.642221801211,4490.642221801211,4507.726209395577,4525.177737365466
136,4539.905946010409,4539.905946010409,4559.248449547236,4574.679120959273
137,4572.945591604397,4572.945591604397,4577.7832200451685,4596.397626555993
138,4590.604114669881,4590.604114669881,4596.670086577337,4613.202051150814
139,4628.191930613172,4628.191930613172,4637.140657356108,4654.357903359486
140,4664.626980256577,4664.626980256577,4709.378917143009,4728.451106819145
141,4677.89671937895,4709.378917143009,4728.451106819145,4748.811987904272
142,4688.302138456769,4726.216292569584,4748.811987904272,4763.887966200789
143,4717.135302950738,4737.600251474149,4763.887966200789,4778.806199246574
144,4756.711674371102,4756.711674371102,4781.742982430381,4797.888418171502
145,4775.264848495188,4781.742982430381,4797.888418171502,4816.2498292102955
146,4802.96125352003,4802.96125352003,4816.2498292102955,4831.519044504471
147,4838.720994220538,4838.720994220538,4848.249471916546,4870.877991061545
148,4867.87116126417,4867.87116126417,4878.197288855265,4895.496887076532
149,4909.912741153696,4909.912741153696,4916.2646317148065,4936.002968314746
150,4946.858036320951,4946.858036320951,4950.263061070525,4963.798581593826
151,4964.102926389562,4964.102926389562,4970.039233428474,4987.16599909768
152,4985.7971966661335,4985.7971966661335,5013.359619224,5033.605450045824
153,5009.094071254741,5013.359619224,5071.831655084102,5094.852797346903
154,5040.456774396576,5071.831655084102,5094.852797346903,5118.506066815334
155,5081.331219073576,5090.432365596717,5118.506066815334,5134.6670369101585
156,5127.501418359916,5127.501418359916,5134.6670369101585,5146.636851335679
157,5151.022966603625,5151.022966603625,5157.86806577136,5179.381523233195
158,5181.4793084606545,5181.4793084606545,5184.413891093456,5195.513401980613
159,5205.71597411072,5205.71597411072,5208.801634816877,5220.347684702598
160,5226.376875366578,5226.376875366578,5227.814022826331,5245.586391129374
161,5264.482883328969,5264.482883328969,5275.200023263458,5294.0914425212
162,5306.425269157203,5306.425269157203,5324.4265888838045,5341.516841164602
163,5319.37810477843,5324.4265888838045,5344.653083489214,5364.352899888836
164,5361.354982694632,5361.354982694632,5364.352899888836,5383.364711263118
165,5386.634839498539,5386.634839498539,5393.497765358806,5409.556914870996
166,5398.580786980442,5398.580786980442,5409.556914870996,5428.4190929897495
167,5438.106743502651,5438.106743502651,5438.187153542149,5459.992969260533
168,5486.529116497567,5486.529116497567,5502.940179210428,5522.248041075859
169,5524.568313867557,5524.568313867557,5529.186288890565,5543.815242022686
170,5565.692431495297,5565.692431495297,5580.41261002925,5594.560351023007
171,5616.270827150265,5616.270827150265,5616.696821517599,5634.078526900024
172,5625.117887228997,5625.117887228997,5634.078526900024,5643.031693269094
173,5673.5449658633115,5673.5449658633115,5685.563082805203,5702.023128264472
174,5721.270571136691,5721.270571136691,5725.089113731795,5740.216063393672
175,5751.819154359645,5751.819154359645,5753.868354727078,5768.056676853204
176,5802.330296859066,5802.330296859066,5813.50732844081,5834.823942456812
177,5845.217537428018,5845.217537428018,5851.995439244577,5868.698866984661
178,5863.993029063875,5863.993029063875,5870.057289975482,5885.856588989314
179,5873.181751327432,5873.181751327432,5885.856588989314,5904.653619448632
180,5910.119567438859,5910.119567438859,5921.435896501879,5942.938344680345
181,5930.407359094888,5930.407359094888,5948.338555799119,5960.702814547648
182,5956.616336339308,5956.616336339308,5968.874972513501,5990.504704689755
183,5993.014780990407,5993.014780990407,6001.970486236644,6015.267846467218
184,6011.508232331869,6011.508232331869,6015.85001396406,6034.80746088601
185,6041.431364816753,6041.431364816753,6042.773093408218,6058.660334180426
186,6066.231982275147,6066.231982275147,6095.188047548552,6108.919739469507
187,6116.700896956284,6116.700896956284,6124.633486513852,6140.798541114077
188,6159.248255706358,6159.248255706358,6188.8913420481185,6201.805318438847
189,6204.670941076649,6204.670941076649,6211.950573268883,6227.174694153687
190,6256.431742359985,6256.431742359985,6260.999713155349,6272.650953360312
191,6269.686612516109,6269.686612516109,6293.632334378662,6312.379324548122
192,6307.706838572942,6307.706838572942,6329.454270412119,6349.3593304298065
193,6343.031174556257,6343.031174556257,6356.316325143949,6367.216186089194
194,6388.160693193545,6388.160693193545,6397.177738350555,6416.241137464183
195,6411.293251966376,6411.293251966376,6431.2035187855645,6441.89413004398
196,6462.747860341649,6462.747860341649,6473.6993782637655,6488.754658821475
197,6499.841846420103,6499.841846420103,6503.32051996528,6523.688280438232
198,6554.786755302993,6554.786755302993,6563.813941577893,6584.406649364846
199,6601.762655451059,6601.762655451059,6640.470251780205,6657.991514665562
200,6649.618951254804,6649.618951254804,6657.991514665562,6674.691252319791
201,6659.7267984166665,6659.7267984166665,6674.691252319791,6689.42747787851
202,6679.701851860465,6679.701851860465,6689.42747787851,6700.372293992617
203,6734.497603990134,6734.497603990134,6755.861206073604,6775.005820689992
204,6771.9713151533015,6771.9713151533015,6780.465273682878,6796.915012112068
205,6800.1573144893055,6800.1573144893055,6803.550085648997,6823.711340088408
206,6843.013318193704,6843.013318193704,6845.909897745004,6864.766252465833
207,6888.381029008103,6888.381029008103,6894.107319450669,6915.93690470728
208,6907.293672537787,6907.293672537787,6937.742797695026,6951.378485919287
209,6923.478240210353,6937.742797695026,6951.378485919287,6970.140621766373
210,6965.2542222799075,6965.2542222799075,6970.900001158896,6987.135149486054
211,7003.296307658164,7003.296307658164,7003.688307469404,7022.630886148862
212,7020.117911842022,7020.117911842022,7025.967445167759,7041.784629305538
213,7046.723869525846,7046.723869525846,7055.290759954978,7072.362443438562
214,7071.083606335281,7071.083606335281,7092.959652311558,7110.233059425808
215,7092.5525486937595,7092.959652311558,7110.233059425808,7126.816882451002
216,7107.582988474149,7107.582988474149,7126.816882451002,7143.691682182761
217,7147.576555902973,7147.576555902973,7148.780316454021,7165.592537505139
218,7203.2312349064605,7203.2312349064605,7224.400856575821,7244.6765372278105
219,7223.792530489098,7224.400856575821,7244.6765372278105,7259.070309636428
220,7275.73897970991,7275.73897970991,7285.046171595603,7298.063691000324
221,7307.734738230447,7307.734738230447,7339.110902296891,7356.5502966489985
222,7323.451905833679,7339.110902296891,7356.5502966489985,7370.146387823573
223,7332.966710985225,7339.3509535764815,7370.146387823573,7389.335783288901
224,7361.70325903365,7361.70325903365,7389.335783288901,7404.2636629950175
225,7411.424119316972,7411.424119316972,7435.552606773691,7454.411499639103
226,7466.79475926723,7466.79475926723,7484.295999601352,7504.3804593703335
227,7520.7826326158065,7520.7826326158065,7531.44489419365,7552.084904146805
228,7552.82151749864,7552.82151749864,7586.270901769938,7600.0881255108225
229,7600.989969857412,7600.989969857412,7608.600266534043,7620.789749330926
230,7636.945411355975,7636.945411355975,7653.0673332788865,7666.980257554107
231,7650.62173004598,7653.0673332788865,7688.656230487624,7704.005992803625
232,7685.379587065236,7688.656230487624,7724.61818036078,7742.68127507252
233,7724.744721870336,7724.744721870336,7748.85523277304,7767.294388381113
234,7777.583926330745,7777.583926330745,7779.292333456703,7797.43836673629
235,7800.488958945028,7800.488958945028,7818.158150767237,7835.049146333319
236,7830.232719801285,7830.232719801285,7835.049146333319,7850.837258614331
237,7870.799185725009,7870.799185725009,7871.526810232682,7883.129318617304
238,7907.021452609341,7907.021452609341,7909.589051495587,7929.2929674532315
239,7935.0085151425155,7935.0085151425155,7935.573435739842,7949.343649531583
240,7970.316012241772,7970.316012241772,7994.513876877993,8006.606122778163
241,8013.413876831295,8013.413876831295,8015.268026036561,8032.739481818684
242,8039.93389321558,8039.93389321558,8080.576604215272,8095.907135956896
243,8082.738752798891,8082.738752798891,8099.431461193282,8112.903823936142
244,8103.130973500168,8103.130973500168,8112.903823936142,8125.864939236962
245,8114.134648821365,8114.134648821365,8125.864939236962,8138.444448413443
246,8140.216627843462,8140.216627843462,8160.239021590912,8177.102867795744
247,8161.268823033273,8161.268823033273,8191.429468977433,8208.14960428239
248,8202.06592509117,8202.06592509117,8236.476359361293,8247.768026652195
249,8228.283675005147,8236.476359361293,8253.594969886744,8272.785582775039
250,8277.788153350857,8277.788153350857,8278.680034503019,8296.460192017064
251,8292.21097346077,8292.21097346077,8299.406085841623,8315.05237636535
252,8300.398328857626,8300.398328857626,8315.05237636535,8328.082222754185
253,8330.239157848224,8330.239157848224,8340.36895477741,8356.431428551974
254,8350.84656190839,8350.84656190839,8360.644956285965,8378.694339536123
255,8361.363533817272,8361.363533817272,8378.694339536123,8397.002837409562
256,8408.426784543448,8408.426784543448,8408.580539063756,8422.99419110118
