# file created by code in harbour_fns_1896438.jl
# file created on 2026-03-09 at 15:40:01
# parameter: seed = 1896623
# parameter: T = 30000.0
# parameter: lower_interarrival = 7.8
# parameter: upper_interarrival = 55.8
# parameter: mean_process_times = [11.0, 16.0]
# parameter: max_queue = [9223372036854775807, 4]
# parameter: time_units = hours
id,arrival_time,start_service_times,start_service_times,completion_time
1,0.0,0.0,5.825757453083983,20.042744528780705
2,20.93581328766462,20.93581328766462,26.254836460738648,49.09799097436739
3,43.48303609484486,43.48303609484486,49.09799097436739,63.82467109832425
4,68.75318181215684,68.75318181215684,104.08206033305409,119.54707791005657
5,81.22807067943832,104.08206033305409,119.54707791005657,137.85819700038107
6,133.67201112394815,133.67201112394815,137.85819700038107,154.7517413086605
7,183.219183855583,183.219183855583,186.84674080008216,204.38437459671556
8,202.12726963328086,202.12726963328086,223.11292255593622,236.5706053993433
9,237.1235886079547,237.1235886079547,238.73818158386797,257.94308553084926
10,265.0301390909212,265.0301390909212,277.5281293393261,294.77072502279333
11,292.2712496955411,292.2712496955411,310.1235712575235,322.56313409857665
12,328.3755248484666,328.3755248484666,334.0882916765424,343.9694229838256
13,355.0971604854835,355.0971604854835,358.1437059329449,374.6806150455023
14,367.0771108256632,367.0771108256632,374.6806150455023,393.6295362763194
15,383.7056634193189,383.7056634193189,397.45808221027835,412.91122485612647
16,409.14530308488503,409.14530308488503,418.29067463919097,428.648910700587
17,463.18754302959604,463.18754302959604,472.3015490217422,490.545175731522
18,512.8776248242201,512.8776248242201,532.6679959955975,550.9732761283132
19,533.5563658717731,533.5563658717731,550.9732761283132,565.2405676393026
20,581.6165243767107,581.6165243767107,592.7498717571639,611.8979203003643
21,619.7822503136332,619.7822503136332,627.1939455967441,645.9038918581407
22,629.284651277746,629.284651277746,667.233831127089,682.5639711102981
23,640.535523428825,667.233831127089,682.5639711102981,700.1468703493796
24,682.2706007722378,682.2706007722378,715.9529542824629,728.60052927766
25,694.6758690293489,715.9529542824629,728.60052927766,743.7629062147594
26,723.872710884941,723.872710884941,743.7629062147594,756.5909767481047
27,754.8455675044574,754.8455675044574,757.9535770462323,771.3883472898743
28,770.7495631608672,770.7495631608672,786.3094610989,799.1567072711046
29,814.7031926339196,814.7031926339196,818.4133847173429,830.3204498985292
30,867.3439067776426,867.3439067776426,868.4569990397448,884.5908040507705
31,922.7810650447245,922.7810650447245,959.7952943388875,978.4096750034098
32,943.6248345296023,959.7952943388875,984.6612261197428,999.4619105832389
33,956.3947225621392,984.6612261197428,1035.7618857770058,1052.7490045029015
34,986.7440838473392,1035.7618857770058,1052.7490045029015,1068.073608892387
35,1042.1720562532591,1045.239734402559,1068.073608892387,1087.0878127918634
36,1091.5326078465118,1091.5326078465118,1102.2422686438758,1120.2610168580331
37,1111.7330117867102,1111.7330117867102,1150.5139876194294,1168.360127154944
38,1151.621848835433,1151.621848835433,1168.360127154944,1184.030812831539
39,1189.5685395998512,1189.5685395998512,1201.5442517919578,1218.251164686111
40,1204.471025522576,1204.471025522576,1225.3342976050556,1240.3711352674718
41,1223.1565841783136,1225.3342976050556,1240.3711352674718,1259.2877352872977
42,1245.5532093461195,1245.5532093461195,1261.8664755547295,1280.1829909741216
43,1279.5682620833745,1279.5682620833745,1280.2940931535427,1299.7563030838837
44,1329.632752441748,1329.632752441748,1351.4112161772525,1370.4692454699073
45,1355.1542458817025,1355.1542458817025,1370.4692454699073,1387.8921062752372
46,1383.5228836205697,1383.5228836205697,1387.8921062752372,1403.7176337998565
47,1402.3487474031867,1402.3487474031867,1413.2401093459862,1429.165922667119
48,1457.0222882259648,1457.0222882259648,1476.2588012875278,1492.5237670497816
49,1475.6305273914027,1476.2588012875278,1502.6738184511828,1514.9640737014945
50,1485.7158874136621,1502.6738184511828,1518.4528949856128,1530.273648351123
51,1511.2045948056746,1518.4528949856128,1530.273648351123,1547.1513595731617
52,1548.8013890754023,1548.8013890754023,1566.6580591587083,1579.9125598163344
53,1604.5983183103574,1604.5983183103574,1606.2630259320583,1624.1464039425553
54,1623.3907646680348,1623.3907646680348,1625.0311647297858,1641.402663556167
55,1662.4778475660048,1662.4778475660048,1666.2632495064138,1681.139768277819
56,1698.269633285337,1698.269633285337,1703.4936723045532,1721.400693400815
57,1716.902923145857,1716.902923145857,1730.7896684460911,1746.0511083467225
58,1735.6224027349897,1735.6224027349897,1748.0901062797057,1766.662185587151
59,1747.3013715784475,1748.0901062797057,1766.662185587151,1784.2387098027134
60,1757.3192985219832,1757.3192985219832,1784.2387098027134,1799.1831392230201
61,1765.7266227788666,1765.7266227788666,1799.1831392230201,1813.7801885038816
62,1809.610311031443,1809.610311031443,1817.5486032137533,1832.2254033450872
63,1847.5023287569106,1847.5023287569106,1870.2107115954518,1892.6676172279197
64,1898.2694631507927,1898.2694631507927,1901.6207677419072,1919.684828645457
65,1950.180623802872,1950.180623802872,1968.5490466225417,1981.9333857626768
66,1974.927018878992,1974.927018878992,1981.9333857626768,1997.0409772618068
67,2019.0855670899823,2019.0855670899823,2059.1191587792637,2074.921652067743
68,2065.4283693854054,2065.4283693854054,2074.921652067743,2093.1585575404683
69,2120.9495148822257,2120.9495148822257,2138.6449551534356,2154.667230385813
70,2141.98853270996,2141.98853270996,2154.667230385813,2170.5050279277793
71,2183.5519675413734,2183.5519675413734,2189.3389686573664,2211.4830130896266
72,2205.685828947316,2205.685828947316,2214.727179776202,2231.751585625884
73,2256.0780947094504,2256.0780947094504,2259.4556810918716,2274.818996672385
74,2282.214867055378,2282.214867055378,2301.562063612919,2315.833574949292
75,2299.015340038292,2301.562063612919,2315.833574949292,2331.1911834600946
76,2345.2973775330483,2345.2973775330483,2349.223922500207,2368.153025400269
77,2365.4773176144295,2365.4773176144295,2368.153025400269,2385.231299267871
78,2384.141272984769,2384.141272984769,2387.48442226124,2408.6162134397396
79,2392.959199919577,2392.959199919577,2408.6162134397396,2423.4192113394197
80,2420.0687624344478,2420.0687624344478,2425.274839269252,2437.9346976430334
81,2448.2087734312317,2448.2087734312317,2470.4734069302654,2485.8865400346886
82,2496.0329869260127,2496.0329869260127,2526.3972126021745,2541.5867900336616
83,2536.450462983236,2536.450462983236,2541.5867900336616,2560.6047460580985
84,2555.9870318854405,2555.9870318854405,2580.6358172908976,2591.4798984043864
85,2565.1540870751037,2580.6358172908976,2604.2317381259227,2614.9219366741254
86,2592.0077269866397,2604.2317381259227,2615.6048344155042,2632.0067814898657
87,2602.738372719253,2615.6048344155042,2632.2777296436184,2646.9446061416265
88,2654.7657861992457,2654.7657861992457,2671.4064460929944,2684.5339823180047
89,2700.3191753356605,2700.3191753356605,2710.3018858238133,2724.877430043447
90,2744.490609804666,2744.490609804666,2754.4032489736046,2776.778698567139
91,2787.6345797833674,2787.6345797833674,2788.5399264368425,2799.928143016656
92,2810.042811504523,2810.042811504523,2828.5289176982164,2846.6177233085364
93,2839.730565215094,2839.730565215094,2846.6177233085364,2861.0789974855966
94,2850.8762420800417,2850.8762420800417,2862.170200739185,2878.728703564223
95,2883.015503901952,2883.015503901952,2884.9713825144627,2901.8659824722963
96,2938.349538709999,2938.349538709999,2939.134019226071,2950.0189273089622
97,2959.6395633294183,2959.6395633294183,2968.0763524832964,2984.232955431487
98,2993.4981238186856,2993.4981238186856,3038.439054002495,3055.1752417908324
99,3035.7674727789285,3038.439054002495,3085.8354302902444,3100.55622946699
100,3080.3970394481753,3085.8354302902444,3100.55622946699,3114.523640451067
101,3103.7210996100066,3103.7210996100066,3114.523640451067,3135.153400118996
102,3122.839534717401,3122.839534717401,3135.153400118996,3152.0400634115863
103,3160.624752138708,3160.624752138708,3165.72753161016,3183.1075413492895
104,3184.410263891589,3184.410263891589,3190.2955979722738,3207.0965628854
105,3219.7758149853134,3219.7758149853134,3221.9209532126492,3240.453283733734
106,3250.601176221229,3250.601176221229,3263.759197084584,3274.2290903724875
107,3294.752138774484,3294.752138774484,3306.1601768981477,3327.207667091906
108,3333.1476197575894,3333.1476197575894,3334.939606367135,3347.678766932203
109,3351.2132221875468,3351.2132221875468,3355.187555139712,3372.973925553477
110,3404.4097131349936,3404.4097131349936,3411.032188597593,3424.5908627285876
111,3441.3993691391406,3441.3993691391406,3442.127809958765,3461.984991300398
112,3485.9381988451214,3485.9381988451214,3489.8541928202044,3507.8060303583466
113,3537.371377206542,3537.371377206542,3537.519045281202,3552.8746413708336
114,3552.240974203571,3552.240974203571,3565.812476586932,3582.0400677671296
115,3585.753077292151,3585.753077292151,3585.88825943048,3600.4721218001105
116,3619.3603301628737,3619.3603301628737,3636.9512517609783,3658.5926580750433
117,3658.406222484412,3658.406222484412,3665.533437538936,3685.5779427762186
118,3685.673265516554,3685.673265516554,3695.0779791337936,3717.095398686152
119,3738.7055164909802,3738.7055164909802,3740.0035892447895,3750.3280112996285
120,3765.6308424097365,3765.6308424097365,3783.7374786073588,3802.326146189051
121,3811.4614318133686,3811.4614318133686,3815.351029388747,3827.9106665847225
122,3826.777588437894,3826.777588437894,3837.6396349303095,3858.547432960279
123,3856.6675700205346,3856.6675700205346,3871.911181094722,3887.913719189444
124,3875.64171259329,3875.64171259329,3898.699724238818,3912.556288584314
125,3926.885698417018,3926.885698417018,3933.726364621915,3949.0889372615125
126,3973.9653763711553,3973.9653763711553,3974.479886942407,3991.0698114781376
127,4014.969455627644,4014.969455627644,4029.304415456524,4043.8419350991367
128,4029.041969090927,4029.304415456524,4043.8419350991367,4058.291874739473
129,4077.8256976647695,4077.8256976647695,4081.6325552598255,4095.243910084463
130,4100.857591009392,4100.857591009392,4104.228520061019,4116.286188264711
131,4146.342759792036,4146.342759792036,4159.806491333422,4173.822316307213
132,4177.806247451484,4177.806247451484,4178.909109103504,4196.272293787223
133,4217.145282720518,4217.145282720518,4230.233463841056,4248.999358221462
134,4272.5432388788195,4272.5432388788195,4275.522469556787,4290.419096821506
135,4325.685628709362,4325.685628709362,4325.762551408287,4339.393969053517
136,4365.521059004482,4365.521059004482,4374.86534902928,4393.3417472459005
137,4373.479413828455,4374.86534902928,4393.3417472459005,4407.527053514315
138,4398.400754500818,4398.400754500818,4407.527053514315,4420.305726556858
139,4453.857730702389,4453.857730702389,4473.402316472068,4487.95749950404
140,4503.912661249903,4503.912661249903,4509.723110946995,4526.909542159329
141,4548.555550858402,4548.555550858402,4552.941225442808,4566.574426035519
142,4597.804818954169,4597.804818954169,4614.732064235344,4630.53865188981
143,4653.258647725033,4653.258647725033,4654.6436394496395,4671.106561859981
144,4691.909963652277,4691.909963652277,4694.045533581457,4707.579317368817
145,4740.501303969582,4740.501303969582,4746.965155385383,4763.992733709872
146,4762.036583112107,4762.036583112107,4764.684470703483,4783.6155400086855
147,4788.11187778229,4788.11187778229,4792.007197704792,4807.179596522153
148,4821.245428764662,4821.245428764662,4826.816419743347,4833.271682550916
149,4853.251092155055,4853.251092155055,4869.617777190223,4886.20113587079
150,4885.144107054553,4885.144107054553,4887.1606235176,4903.159514180612
151,4909.804572559772,4909.804572559772,4920.854484220285,4931.583848418915
152,4931.199185652621,4931.199185652621,4932.13886568893,4952.548037868686
153,4986.808463894766,4986.808463894766,5003.952975245852,5015.03315526719
154,5027.836808747252,5027.836808747252,5040.436688752496,5058.064209148372
155,5070.339102645406,5070.339102645406,5076.099936863469,5090.154292232452
156,5102.5976434906825,5102.5976434906825,5107.7733030231975,5114.015591694757
157,5135.751078172021,5135.751078172021,5159.132762471537,5173.7200698994
158,5152.372696183713,5159.132762471537,5173.7200698994,5190.9961008088685
159,5166.773973669334,5166.773973669334,5190.9961008088685,5205.729387827998
160,5196.313746187521,5196.313746187521,5205.729387827998,5217.786919627283
161,5215.152524568748,5215.152524568748,5217.786919627283,5235.028696184696
162,5229.474787312019,5229.474787312019,5237.536639533814,5257.740821785606
163,5275.070683686413,5275.070683686413,5285.847992372363,5297.986102347554
164,5301.197314317357,5301.197314317357,5301.562056058287,5315.323132919637
165,5351.570033282246,5351.570033282246,5360.591927419614,5379.7952160958275
166,5397.296231789121,5397.296231789121,5409.721802280751,5422.719294140858
167,5431.089763620331,5431.089763620331,5434.484255681585,5452.802302018409
168,5479.663707714466,5479.663707714466,5498.030917789939,5516.828926261918
169,5495.673642849125,5498.030917789939,5522.741335311749,5543.511115076592
170,5522.261060139837,5522.741335311749,5543.511115076592,5560.939843787945
171,5556.815084820181,5556.815084820181,5560.939843787945,5574.009847672069
172,5598.531163593288,5598.531163593288,5608.79156774482,5628.612971938363
173,5620.458421852616,5620.458421852616,5648.41559239686,5671.069936569705
174,5673.400660294436,5673.400660294436,5698.605210068755,5715.879865031175
175,5681.665643457495,5698.605210068755,5716.628376052541,5732.643166963981
176,5734.641424917342,5734.641424917342,5753.04837824978,5773.171996496415
177,5787.503035345525,5787.503035345525,5814.525817396085,5828.392449808713
178,5831.190273167798,5831.190273167798,5846.188766602891,5860.93308760072
179,5872.939806432918,5872.939806432918,5891.171171493164,5906.419519777424
180,5918.3026553492955,5918.3026553492955,5924.745544514646,5942.670081122039
181,5938.8459813489335,5938.8459813489335,5946.518467647219,5962.772058297328
182,5969.274230883806,5969.274230883806,5969.739748253909,5985.1159845681295
183,5985.967974125428,5985.967974125428,5989.925605803836,6007.190993034455
184,6041.4490109416765,6041.4490109416765,6053.756695740837,6067.837518752778
185,6067.4096810248975,6067.4096810248975,6068.983876339805,6085.3168962590435
186,6103.335043712694,6103.335043712694,6150.551076306671,6168.360439999331
187,6118.446379287248,6150.551076306671,6168.360439999331,6184.967254477838
188,6166.683844026838,6166.683844026838,6187.495260501506,6202.771959471141
189,6178.734875353012,6187.495260501506,6202.771959471141,6219.699250231638
190,6215.835291927023,6215.835291927023,6219.699250231638,6239.308099171729
191,6250.487438601973,6250.487438601973,6289.499953996111,6304.5826353360735
192,6290.467661180489,6290.467661180489,6304.5826353360735,6319.995423031933
193,6326.064339511752,6326.064339511752,6329.094070588819,6339.20026565185
194,6365.724683506657,6365.724683506657,6368.721995908181,6387.388856493249
195,6396.576348953763,6396.576348953763,6403.956531707307,6415.363667050779
196,6416.576910230034,6416.576910230034,6425.517342961314,6438.6959360014025
197,6424.94337743726,6425.517342961314,6438.6959360014025,6455.0169734790425
198,6434.4331829463945,6434.4331829463945,6455.0169734790425,6466.23886403005
199,6444.200518887648,6444.200518887648,6468.4594810650615,6483.769095201239
200,6490.779540354182,6490.779540354182,6492.688978227017,6510.799284680217
201,6545.71554518565,6545.71554518565,6554.291729155032,6565.79770023382
202,6586.6369956122235,6586.6369956122235,6597.293270851953,6609.009899889678
203,6601.921063601082,6601.921063601082,6625.238770158408,6637.632638657144
204,6619.662133517555,6625.238770158408,6637.632638657144,6650.349842621143
205,6628.141295020237,6628.176893684924,6650.349842621143,6664.836508304405
206,6652.023923770512,6652.023923770512,6667.933146324748,6683.8814161216005
207,6693.714065926705,6693.714065926705,6717.836886878801,6734.870309565406
208,6746.860822065918,6746.860822065918,6772.596482247675,6785.889238564933
209,6761.8390859568235,6772.596482247675,6797.619173518901,6815.086939597744
210,6780.500636027821,6797.619173518901,6815.474947824541,6832.288601795003
211,6794.3323340412735,6815.474947824541,6832.288601795003,6852.367308708582
212,6842.636272053261,6842.636272053261,6852.367308708582,6870.112277995934
213,6896.027330053514,6896.027330053514,6914.064241313323,6930.547208745627
214,6935.686447637161,6935.686447637161,6947.977821756154,6966.011195522209
215,6969.985851871248,6969.985851871248,6972.472210714537,6990.302653243242
216,6984.577752890608,6984.577752890608,6993.1140140183725,7013.089575429097
217,6994.550454210522,6994.550454210522,7015.015269541383,7037.818099815825
218,7006.15755488438,7015.015269541383,7037.818099815825,7051.1221613707685
219,7036.122924189358,7036.122924189358,7051.1221613707685,7068.785860909345
220,7069.259470551633,7069.259470551633,7080.623465838485,7092.852889176448
221,7088.034444250193,7088.034444250193,7092.852889176448,7108.7479719181865
222,7100.054397612297,7100.054397612297,7108.7479719181865,7121.410839903614
223,7128.045515380711,7128.045515380711,7133.894542334836,7151.096609059685
224,7177.068009907031,7177.068009907031,7177.6338139633945,7193.88098762076
225,7216.7113582294705,7216.7113582294705,7219.492429535714,7236.820482658822
226,7259.3678174540555,7259.3678174540555,7267.742626436439,7278.534548267338
227,7271.310938626975,7271.310938626975,7281.722486565185,7293.385742882178
228,7311.452274912787,7311.452274912787,7331.221339867983,7345.844908411405
229,7326.62138124292,7331.221339867983,7345.844908411405,7360.790369877971
230,7338.433348186593,7338.433348186593,7360.790369877971,7376.425425599981
231,7363.227698875483,7363.227698875483,7392.991466249122,7409.632019220731
232,7384.124346782686,7392.991466249122,7413.0947234221485,7423.32003429217
233,7394.174493414891,7413.0947234221485,7423.32003429217,7441.346461118842
234,7428.972937359307,7428.972937359307,7447.7055648987625,7459.138926656251
235,7475.777802970455,7475.777802970455,7478.606185670178,7493.772141525588
236,7518.708256127248,7518.708256127248,7539.9688126930005,7561.381205141441
237,7534.995286460621,7539.9688126930005,7561.381205141441,7579.74315039665
238,7557.202256111034,7557.202256111034,7592.136342260954,7606.094935986791
239,7594.152148955699,7594.152148955699,7606.094935986791,7621.643616934648
240,7644.953195354952,7644.953195354952,7657.31250709555,7669.297285247842
241,7697.0919445873415,7697.0919445873415,7719.363009929335,7736.034379954917
242,7718.065700799196,7719.363009929335,7736.034379954917,7746.632235674196
243,7744.28075975133,7744.28075975133,7761.414309325731,7772.581212082409
244,7787.26315232814,7787.26315232814,7800.482177438904,7812.82932148908
245,7813.190526217305,7813.190526217305,7820.77446138842,7834.387461537575
246,7849.754228875259,7849.754228875259,7851.452151474308,7870.865668079709
247,7886.124424899969,7886.124424899969,7889.600999392737,7905.253203954847
248,7907.460493482071,7907.460493482071,7910.472122488494,7923.67700486647
249,7956.594951481705,7956.594951481705,7965.907303139014,7983.307421076558
250,8000.5674740606355,8000.5674740606355,8004.470026548142,8020.391616819008
251,8012.321170551321,8012.321170551321,8020.758760736362,8034.345077366686
252,8039.217817793843,8039.217817793843,8046.601467938039,8061.501088646437
253,8078.3327245063665,8078.3327245063665,8085.758324676183,8101.143790983591
254,8106.003490455763,8106.003490455763,8111.362450774836,8128.572498972174
255,8137.453097663263,8137.453097663263,8145.7490399246235,8160.210624083594
256,8185.421817953057,8185.421817953057,8199.206447892391,8207.764794448847
