# file created by code in harbour_fns_1896438.jl
# file created on 2026-03-09 at 15:39:51
# parameter: seed = 1896483
# parameter: T = 30000.0
# parameter: lower_interarrival = 7.8
# parameter: upper_interarrival = 55.8
# parameter: mean_process_times = [11.0, 16.0]
# parameter: max_queue = [9223372036854775807, 4]
# parameter: time_units = hours
id,arrival_time,start_service_times,start_service_times,completion_time
1,0.0,0.0,22.604344572759363,38.865655734126065
2,39.263816176028975,39.263816176028975,40.76031532050597,56.96756371121157
3,83.31652353974192,83.31652353974192,102.33700536776311,117.68053899469633
4,126.729995109338,126.729995109338,127.16847658790533,148.58001305895638
5,159.82105029300152,159.82105029300152,177.30996635246845,194.4335548652999
6,181.64216886846808,181.64216886846808,194.4335548652999,214.7690822504306
7,227.22978895078563,227.22978895078563,231.41330409843903,247.81050697691808
8,280.85404315515916,280.85404315515916,298.0684757443616,313.4746958591079
9,317.21466480526834,317.21466480526834,319.6765019301863,331.91145909717363
10,330.7551890753003,330.7551890753003,334.50296094050077,351.48454649951776
11,380.0365782299409,380.0365782299409,390.6836181844933,403.130064131597
12,425.9637483335399,425.9637483335399,441.7400358494274,457.77250783135355
13,462.76958980071305,462.76958980071305,486.4589836239123,503.8257992639206
14,481.0107816232411,486.4589836239123,503.8257992639206,521.2349619594573
15,501.6150975925302,501.6150975925302,521.2349619594573,538.0737333112023
16,546.9891675127682,546.9891675127682,547.8793959672431,570.8106238574435
17,581.8373979979918,581.8373979979918,609.5679123062475,625.774330306683
18,608.7232171171714,609.5679123062475,645.0689104310821,659.4427003914524
19,617.7579207069907,645.0689104310821,659.4427003914524,673.5758447232911
20,653.2588728164754,653.2588728164754,673.5758447232911,688.4899117561213
21,686.2912185844444,686.2912185844444,690.0031255912301,705.7606431893122
22,695.0395661109279,695.0395661109279,711.6970518668857,730.4112786859499
23,722.9155080882491,722.9155080882491,730.4112786859499,747.865932546655
24,746.029211675245,746.029211675245,749.4531343314135,765.0385517710621
25,768.9363656682563,768.9363656682563,770.5409122155589,788.040304962682
26,788.9151755392809,788.9151755392809,794.864500240856,809.8867488208775
27,826.5370876504172,826.5370876504172,846.9993559001167,863.8493831552911
28,835.7257996296086,846.9993559001167,863.8493831552911,881.1511699077442
29,873.303178813937,873.303178813937,881.1511699077442,899.6484129537197
30,904.9497175501479,904.9497175501479,910.8378169535921,925.415474420826
31,936.1651284114955,936.1651284114955,975.9983429627325,987.6678835261498
32,966.4828271748028,975.9983429627325,987.6678835261498,1008.414112531292
33,1014.1996971091195,1014.1996971091195,1014.8571941753448,1030.384292818883
34,1054.4771538172752,1054.4771538172752,1055.0774648754411,1075.1932870388066
35,1067.4876926559295,1067.4876926559295,1075.1932870388066,1085.0404213626643
36,1078.6108450106149,1078.6108450106149,1085.0404213626643,1101.9051663648934
37,1112.612427015656,1112.612427015656,1130.7399368805502,1148.846919655889
38,1135.0643598444153,1135.0643598444153,1148.846919655889,1166.6460564521872
39,1180.4311038323083,1180.4311038323083,1183.224143792662,1198.7794391040666
40,1191.1888094586973,1191.1888094586973,1198.7794391040666,1213.152815855374
41,1230.3522032025382,1230.3522032025382,1233.0888633163356,1246.1853512039327
42,1269.3057365007546,1269.3057365007546,1274.7119732882027,1286.9222014690658
43,1310.3941495035929,1310.3941495035929,1317.7480109249288,1335.7157348414582
44,1335.577733789043,1335.577733789043,1343.980228983949,1360.2934556198993
45,1369.6109461096926,1369.6109461096926,1380.3543231365854,1391.1483660640426
46,1395.4014220261329,1395.4014220261329,1400.8859802909456,1423.8886432383345
47,1416.039190091626,1416.039190091626,1423.8886432383345,1439.9176789750748
48,1450.3696427113643,1450.3696427113643,1452.811398570374,1467.6731347085472
49,1475.9377965327415,1475.9377965327415,1476.8302808211015,1486.8999562088372
50,1509.052071472908,1509.052071472908,1513.120385686586,1527.828922980928
51,1537.535649819889,1537.535649819889,1541.6286085415793,1557.7172570304951
52,1557.5775561557043,1557.5775561557043,1558.1889855481493,1575.6918552215918
53,1580.0011500895905,1580.0011500895905,1598.3505645665368,1610.852363646533
54,1627.4454246710177,1627.4454246710177,1634.5204598727178,1649.7345731023286
55,1656.4549335437018,1656.4549335437018,1660.7620850075352,1675.8493397577304
56,1672.9009554583095,1672.9009554583095,1691.0389916025197,1704.301059429901
57,1687.8387691266364,1691.0389916025197,1704.301059429901,1717.212441420866
58,1700.7877535822752,1702.4327615247828,1717.212441420866,1732.8032991699265
59,1723.85425060741,1723.85425060741,1732.8032991699265,1746.8065805757576
60,1745.5722830852283,1745.5722830852283,1749.6956574448773,1764.990896807822
61,1786.4067977737666,1786.4067977737666,1800.8983690521811,1817.3736479476809
62,1815.8427926924376,1815.8427926924376,1828.4888465442684,1847.1210396974548
63,1847.9785799311298,1847.9785799311298,1863.227268129386,1882.8069596364664
64,1898.8000311522894,1898.8000311522894,1905.9495574606544,1919.794912146074
65,1908.1142222661658,1908.1142222661658,1919.794912146074,1933.9225308162324
66,1917.5419607699105,1917.5419607699105,1933.9225308162324,1952.656744431352
67,1969.3578124041137,1969.3578124041137,1983.9177597859,1999.2330297268618
68,2010.0813108178154,2010.0813108178154,2011.4817600273852,2028.503881107881
69,2028.664129419201,2028.664129419201,2056.3635878318896,2075.008589109061
70,2054.1561281904687,2056.3635878318896,2075.008589109061,2089.6062077520264
71,2079.4430204313894,2079.4430204313894,2089.6062077520264,2105.5006097824175
72,2105.4973178192513,2105.4973178192513,2119.6109297382172,2136.2537968811075
73,2143.511670487396,2143.511670487396,2158.009063275818,2167.3928551867566
74,2173.168897073626,2173.168897073626,2186.291672943947,2205.4251291801984
75,2182.6865669744016,2186.291672943947,2205.4251291801984,2221.5449466390846
76,2210.3580299440723,2210.3580299440723,2221.5449466390846,2243.0020268805984
77,2250.390190994955,2250.390190994955,2253.4437048418213,2269.25971232802
78,2300.9851941842207,2300.9851941842207,2303.8689023811035,2312.710576325835
79,2341.3229398966337,2341.3229398966337,2346.6917195626334,2355.0081438603643
80,2380.3928734262295,2380.3928734262295,2386.3305494422298,2402.8867933037054
81,2396.492969563261,2396.492969563261,2403.8675527148407,2418.1203591384556
82,2424.6418677540323,2424.6418677540323,2436.634851881302,2452.2188224559313
83,2459.0528831628594,2459.0528831628594,2463.223254108326,2474.17567338685
84,2481.754822151372,2481.754822151372,2484.1262959445216,2499.810060773765
85,2496.0510692952193,2496.0510692952193,2501.6918027066795,2517.8894984228905
86,2527.539325072412,2527.539325072412,2534.7995681558023,2552.7477360268804
87,2545.3334003467803,2545.3334003467803,2552.7477360268804,2568.7693330732136
88,2566.7835258580276,2566.7835258580276,2577.0362279870938,2588.45793929066
89,2590.366581223085,2590.366581223085,2607.0491083099737,2628.3216344918524
90,2644.583052007217,2644.583052007217,2652.890419416565,2669.9416635965367
91,2665.7038404521663,2665.7038404521663,2702.4062447670817,2718.1894901469063
92,2720.0939487158257,2720.0939487158257,2730.7133594067996,2749.457942992196
93,2770.0970640836454,2770.0970640836454,2770.361536047576,2783.9043931465158
94,2790.78458784522,2790.78458784522,2794.6525176150844,2814.5238316803557
95,2801.522323415629,2801.522323415629,2814.5238316803557,2826.6839688305686
96,2840.1502910352788,2840.1502910352788,2850.66306058588,2871.166567233961
97,2861.7322351673415,2861.7322351673415,2883.470882763255,2902.3461122772305
98,2879.358630353717,2883.470882763255,2902.3461122772305,2918.3411483693712
99,2932.377405955429,2932.377405955429,2938.5395224852527,2956.8599006577087
100,2987.1983791669522,2987.1983791669522,2990.043107929394,3009.737743559287
101,3024.9471903692074,3024.9471903692074,3025.4149415676716,3037.51884726242
102,3053.0230214655185,3053.0230214655185,3058.332026259437,3073.9968395893834
103,3102.1393425489473,3102.1393425489473,3107.405818058681,3122.1098642425027
104,3144.731337876391,3144.731337876391,3152.8749905695295,3169.2295542403563
105,3192.3295781449433,3192.3295781449433,3200.874541590134,3217.7678554565714
106,3231.083660700374,3231.083660700374,3239.3863623353013,3247.167395038221
107,3283.607093097064,3283.607093097064,3289.4575614517107,3303.042664074386
108,3299.1523413764735,3299.1523413764735,3303.042664074386,3321.095623561051
109,3344.5219889699533,3344.5219889699533,3348.6886655778444,3365.716406948094
110,3372.5304168442212,3372.5304168442212,3376.113425118376,3390.2882658085805
111,3404.831779168233,3404.831779168233,3409.650860081703,3421.851844239936
112,3438.987760358072,3438.987760358072,3443.634679522009,3457.0367719497476
113,3467.522024562393,3467.522024562393,3472.980078826315,3489.3023863029366
114,3488.8883154934115,3488.8883154934115,3510.158620205284,3523.3049529475156
115,3537.135500499374,3537.135500499374,3540.8400303149015,3551.6227972351035
116,3550.2927661591416,3550.2927661591416,3551.6227972351035,3564.640840931653
117,3592.7031203900315,3592.7031203900315,3605.2300722724367,3621.146592217726
118,3618.8037757379566,3618.8037757379566,3636.79387110134,3659.2083447681707
119,3636.752514895124,3636.79387110134,3659.2083447681707,3675.595823883699
120,3664.870350907202,3664.870350907202,3677.888922554341,3694.374694342868
121,3713.779274625934,3713.779274625934,3716.3077286707307,3730.0038701723083
122,3723.2831928005544,3723.2831928005544,3748.71262407095,3770.2795219444884
123,3745.3692135427223,3748.71262407095,3770.2795219444884,3788.0666216596296
124,3796.854923983958,3796.854923983958,3817.225571290998,3831.405425550716
125,3831.402698784731,3831.402698784731,3837.248771481407,3856.5224890138247
126,3874.541209027454,3874.541209027454,3874.998486136234,3895.385793968356
127,3913.982615285803,3913.982615285803,3915.9761894996554,3931.4124702140994
128,3931.810112576924,3931.810112576924,3932.2444068030272,3946.509053138589
129,3964.1341475924846,3964.1341475924846,4006.532830108184,4024.6674767669274
130,4008.8952737425207,4008.8952737425207,4024.6674767669274,4040.819961635147
131,4060.821255671271,4060.821255671271,4076.609370548049,4097.305645900399
132,4083.1955934633174,4083.1955934633174,4097.305645900399,4111.157658045533
133,4099.710315389855,4099.710315389855,4111.157658045533,4125.753166703729
134,4108.659146874332,4108.659146874332,4125.753166703729,4144.54276371427
135,4164.127533672899,4164.127533672899,4167.928528398223,4188.969952959193
136,4174.12467400868,4174.12467400868,4197.97333630206,4224.519466554508
137,4194.952205560378,4197.97333630206,4224.519466554508,4242.564560965588
138,4203.3402477760055,4203.3402477760055,4242.564560965588,4260.8465366265955
139,4235.847423728738,4235.847423728738,4260.8465366265955,4279.47758175203
140,4263.251797986743,4263.251797986743,4279.47758175203,4296.489437428227
141,4277.852716053071,4277.852716053071,4296.489437428227,4316.980601167791
142,4313.044477903753,4313.044477903753,4341.322949417966,4359.307539131294
143,4347.918062215474,4347.918062215474,4359.307539131294,4372.510839190611
144,4398.4524420387215,4398.4524420387215,4408.877444166341,4419.759549284537
145,4432.49509693347,4432.49509693347,4457.917045287011,4472.733293155709
146,4462.471696353073,4462.471696353073,4472.733293155709,4485.793088538265
147,4488.9225713710475,4488.9225713710475,4490.941431913029,4507.9093948590535
148,4513.8010533479355,4513.8010533479355,4532.248473577134,4551.922383645821
149,4549.708524756806,4549.708524756806,4551.922383645821,4573.382621471744
150,4604.5496741649395,4604.5496741649395,4640.749978054903,4657.943921901577
151,4645.131653944497,4645.131653944497,4657.943921901577,4671.2896535093805
152,4695.228624968084,4695.228624968084,4701.912467800302,4715.585823866819
153,4733.168048334381,4733.168048334381,4770.622447682352,4787.5020037197855
154,4781.915675219459,4781.915675219459,4792.923963469392,4807.779559847527
155,4821.186846663416,4821.186846663416,4862.726745459097,4881.027329469961
156,4843.6665465327105,4862.726745459097,4881.027329469961,4894.6737461165885
157,4873.699475419975,4873.699475419975,4894.6737461165885,4909.720356698523
158,4925.586013758414,4925.586013758414,4936.921062996328,4956.270271160662
159,4975.010529399756,4975.010529399756,4980.969240606724,4992.759239519127
160,5005.427465761915,5005.427465761915,5036.250324881979,5052.120636349527
161,5041.862074909488,5041.862074909488,5052.120636349527,5071.484649601156
162,5090.509668897121,5090.509668897121,5098.386385372942,5110.261635556123
163,5144.413012581385,5144.413012581385,5156.244553227433,5174.711808039141
164,5194.363596329439,5194.363596329439,5200.443618689153,5210.814647121148
165,5202.2397515820485,5202.2397515820485,5210.814647121148,5221.004991559893
166,5219.347184819157,5219.347184819157,5232.847029490788,5249.540427952237
167,5272.749649972124,5272.749649972124,5273.741895441534,5284.775342766747
168,5299.483987349336,5299.483987349336,5304.014155864005,5317.924954533641
169,5319.654520124487,5319.654520124487,5328.1342908404185,5341.363972048078
170,5350.2836012323805,5350.2836012323805,5354.1982263943755,5371.983166110085
171,5396.478676954816,5396.478676954816,5396.489502250506,5408.94420202754
172,5445.237814266394,5445.237814266394,5456.372162164156,5476.12996803791
173,5463.934353158215,5463.934353158215,5476.438510972791,5490.8871302318585
174,5510.344769240683,5510.344769240683,5519.076054234615,5536.044925302533
175,5523.937699476779,5523.937699476779,5547.7122146502525,5560.007070219767
176,5573.902618488241,5573.902618488241,5577.357868140223,5600.614640004604
177,5586.051224386147,5586.051224386147,5600.614640004604,5613.827515309149
178,5640.850580222162,5640.850580222162,5647.333126369676,5671.528198587418
179,5654.06422982605,5654.06422982605,5671.528198587418,5685.504431031895
180,5695.4465033249235,5695.4465033249235,5743.21211937606,5758.997527653841
181,5720.509798023141,5743.21211937606,5758.997527653841,5775.0402617348855
182,5750.749314976771,5757.223517505315,5775.0402617348855,5788.74122667444
183,5793.6833494825305,5793.6833494825305,5802.690438826086,5821.5899803949205
184,5839.994962489828,5839.994962489828,5841.762624256597,5853.894691072983
185,5854.885257097811,5854.885257097811,5872.727871156148,5889.361514409684
186,5895.528089560226,5895.528089560226,5900.940884178811,5915.027449963003
187,5907.735801079388,5907.735801079388,5920.657858526353,5938.31915106646
188,5951.733879174442,5951.733879174442,5955.931204769996,5972.662419080159
189,6004.883843814479,6004.883843814479,6028.866503826985,6038.625941381192
190,6038.0253598128165,6038.0253598128165,6044.895604827561,6061.597538271658
191,6082.384441030432,6082.384441030432,6091.5618968714025,6110.417756795256
192,6129.853718901533,6129.853718901533,6142.680945659319,6159.368367415789
193,6177.891614876117,6177.891614876117,6177.907307729078,6196.674737828101
194,6217.3414006761495,6217.3414006761495,6236.023750423136,6256.526341939623
195,6255.302617417657,6255.302617417657,6281.856817919628,6296.219405477208
196,6304.690957542129,6304.690957542129,6319.505982323172,6335.608144111251
197,6347.9916001663905,6347.9916001663905,6365.6188374625,6380.840361885773
198,6377.892960386539,6377.892960386539,6384.382432494631,6401.300015913658
199,6401.865270951225,6401.865270951225,6413.610609429562,6430.889766349109
200,6418.3351056082065,6418.3351056082065,6430.889766349109,6450.659987668255
201,6459.182844580874,6459.182844580874,6459.751735722936,6476.680641865636
202,6481.962205379163,6481.962205379163,6490.132211474695,6504.140903547051
203,6493.805012950017,6493.805012950017,6504.140903547051,6517.953343242675
204,6526.835663598475,6526.835663598475,6529.643232532226,6548.918152759199
205,6550.246953152376,6550.246953152376,6553.799350385232,6574.0741203246125
206,6600.673219558793,6600.673219558793,6601.41690660046,6626.944080803583
207,6632.82444797156,6632.82444797156,6650.85880893105,6671.521838093766
208,6650.040730861589,6650.85880893105,6702.100773982886,6713.157406424721
209,6691.188077460538,6702.100773982886,6713.157406424721,6727.095237614558
210,6723.866233842175,6723.866233842175,6727.668167162062,6742.784272012859
211,6758.587423238903,6758.587423238903,6764.801999446101,6782.500795769892
212,6802.720299070483,6802.720299070483,6810.623496260625,6826.733662743095
213,6837.180802597527,6837.180802597527,6848.966422105318,6861.911458774613
214,6862.598453555636,6862.598453555636,6866.368445286382,6880.548929322013
215,6881.937048795955,6881.937048795955,6886.606861046078,6898.096520158084
216,6905.454095546062,6905.454095546062,6912.259166231224,6925.330386838765
217,6938.596725859165,6938.596725859165,6943.750685810502,6958.957078654504
218,6983.058083060957,6983.058083060957,7020.800725618556,7037.630751458542
219,7034.103723240892,7034.103723240892,7043.850221150039,7064.431701047992
220,7065.005224023844,7065.005224023844,7082.675425455465,7100.553022907537
221,7074.050814691815,7082.675425455465,7100.553022907537,7112.147045835506
222,7097.922980227518,7097.922980227518,7112.147045835506,7124.581599759049
223,7141.326946277888,7141.326946277888,7150.824928354966,7166.447180970616
224,7150.923083833923,7150.923083833923,7181.3391050023065,7199.890048972646
225,7192.607814608512,7192.607814608512,7199.890048972646,7216.998056813215
226,7240.77331877307,7240.77331877307,7271.41294485005,7287.324019198486
227,7251.202960841168,7271.41294485005,7311.50123370957,7323.3388800994435
228,7296.816585180055,7311.50123370957,7323.3388800994435,7340.576534389137
229,7350.284425264778,7350.284425264778,7354.3130971539,7366.003648172523
230,7390.898035997329,7390.898035997329,7391.345604935428,7404.199356164785
231,7417.61607518223,7417.61607518223,7435.517667101622,7446.440179551548
232,7470.286193400907,7470.286193400907,7488.321487471076,7507.953421094658
233,7494.481758212344,7494.481758212344,7534.6211112722385,7552.019852905145
234,7523.998195155772,7534.6211112722385,7552.019852905145,7566.671908808081
235,7535.9718694766325,7536.427208833828,7566.671908808081,7579.812148148923
236,7567.602490912593,7567.602490912593,7579.812148148923,7596.542864706001
237,7610.517821388695,7610.517821388695,7610.674488197366,7627.624310875722
238,7650.509965995701,7650.509965995701,7661.979978626097,7677.727886859802
239,7662.834467751868,7662.834467751868,7677.727886859802,7696.150465229527
240,7698.101206922251,7698.101206922251,7726.370392447514,7743.96567863003
241,7752.3615541286745,7752.3615541286745,7767.091950757195,7780.146192974622
242,7773.478518348935,7773.478518348935,7781.286646647326,7793.32848995868
243,7826.712307393623,7826.712307393623,7832.7969304691305,7848.128822142137
244,7881.220160065722,7881.220160065722,7887.110910995061,7905.711985122786
245,7919.464221039939,7919.464221039939,7923.866805276945,7937.258523732026
246,7970.406248695779,7970.406248695779,7983.946866149636,8001.0439520162945
247,8005.503652399059,8005.503652399059,8009.667973456644,8022.1450738262365
248,8017.02487314784,8017.02487314784,8022.1450738262365,8036.645928864701
249,8071.7003049759005,8071.7003049759005,8082.736156275221,8099.4825824457785
250,8081.415434797038,8082.736156275221,8099.4825824457785,8115.014460318235
251,8137.036087219948,8137.036087219948,8150.047906714755,8169.947654716855
252,8154.945419093546,8154.945419093546,8169.947654716855,8186.192598904916
253,8193.099177698952,8193.099177698952,8204.436066366914,8215.487782861808
254,8207.977961524732,8207.977961524732,8215.487782861808,8233.8702332252
255,8232.389390124295,8232.389390124295,8233.8702332252,8250.084483917062
