# file created by code in harbour_fns_1896438.jl
# file created on 2026-03-09 at 15:40:00
# parameter: seed = 1896616
# parameter: T = 30000.0
# parameter: lower_interarrival = 7.8
# parameter: upper_interarrival = 55.8
# parameter: mean_process_times = [11.0, 16.0]
# parameter: max_queue = [9223372036854775807, 4]
# parameter: time_units = hours
id,arrival_time,start_service_times,start_service_times,completion_time
1,0.0,0.0,8.001099552206835,21.745628662910168
2,33.852213432082834,33.852213432082834,43.29382513341754,67.69146529010754
3,71.87471046708973,71.87471046708973,100.56451733866714,115.78958026372258
4,126.85202247701591,126.85202247701591,170.86579075882852,183.9447253854168
5,140.3577196601165,170.86579075882852,198.594005646003,215.39328446175867
6,163.8573174306148,198.594005646003,215.39328446175867,233.40255014262124
7,193.84076845388307,200.1713392142325,233.40255014262124,248.41879752836934
8,223.98996355305206,223.98996355305206,248.41879752836934,269.059827992194
9,279.17627955869153,279.17627955869153,289.8342226269605,303.6775833140877
10,296.7645287310113,296.7645287310113,303.6775833140877,320.2869625322309
11,315.5076532631322,315.5076532631322,335.34609991687387,353.27942710355916
12,335.3030731635914,335.34609991687387,353.27942710355916,371.5625596650176
13,376.27826474544077,376.27826474544077,386.45076201621123,405.2347407074847
14,390.5758781917332,390.5758781917332,409.54331753431586,423.71293207339926
15,413.2269368147891,413.2269368147891,423.71293207339926,438.06887455715366
16,456.4065103148776,456.4065103148776,474.2729023013272,487.6927801834023
17,487.1165795214266,487.1165795214266,488.42506550093805,502.1865273663466
18,537.4009984248611,537.4009984248611,549.541998753999,567.076715288294
19,570.9353523005954,570.9353523005954,581.1773336118259,599.0740242165375
20,603.7440442049276,603.7440442049276,608.1059598627598,621.6459311551267
21,639.0535762301714,639.0535762301714,641.1294185871043,650.2864151234614
22,675.748433246572,675.748433246572,683.538774527469,699.0204670657166
23,707.7695112613451,707.7695112613451,724.8198899372595,740.1094768754192
24,729.2135249842199,729.2135249842199,753.1838918163883,769.7881882965185
25,770.1275644847934,770.1275644847934,774.0682546305356,787.5909468725929
26,787.9359213999726,787.9359213999726,791.0682855497337,807.928429236193
27,818.7231079537136,818.7231079537136,822.6854944160807,841.0332156260099
28,833.597960272626,833.597960272626,846.2871525886776,864.1056598191072
29,842.8443369547224,846.2871525886776,864.3095571073717,883.2832853494633
30,854.9826118909327,864.3095571073717,883.2832853494633,896.2389633035727
31,863.352060870537,872.3354902598461,896.2389633035727,911.0672289519238
32,877.3080214061425,889.5913610146697,911.0672289519238,927.8238485247826
33,909.6893616317648,909.6893616317648,927.8238485247826,948.0104848913271
34,923.7351276881126,923.7351276881126,948.0104848913271,959.4106138081672
35,972.3355764846788,972.3355764846788,987.3439336386981,1001.4938377473951
36,996.1276625927611,996.1276625927611,1004.2255501822592,1016.7317282623844
37,1046.659738780188,1046.659738780188,1052.7775283273013,1069.5168010404961
38,1069.5743635662893,1069.5743635662893,1074.951962385856,1094.2446489669198
39,1117.7123367599468,1117.7123367599468,1148.847709895604,1161.572653226793
40,1132.201935786231,1148.847709895604,1161.572653226793,1176.173796070037
41,1155.50697407773,1159.7711307804484,1176.173796070037,1193.4554630930509
42,1192.1126754508227,1192.1126754508227,1234.7760578027799,1249.4256337807635
43,1241.1378305192827,1241.1378305192827,1249.4256337807635,1267.835932278377
44,1264.428659839805,1264.428659839805,1267.835932278377,1284.4177854496552
45,1284.771460532157,1284.771460532157,1285.9336501164744,1299.3105115547912
46,1321.9145713563773,1321.9145713563773,1326.7016220009377,1343.3771345134742
47,1332.2282655235126,1332.2282655235126,1353.835845906279,1370.7949750313367
48,1359.6473410855795,1359.6473410855795,1370.7949750313367,1386.9021616346447
49,1384.1829379163496,1384.1829379163496,1386.9021616346447,1404.2486600961072
50,1432.6482231762043,1432.6482231762043,1443.3361423793845,1459.3880401626875
51,1485.887320354246,1485.887320354246,1500.6397726229043,1516.2284965960596
52,1537.4436812257434,1537.4436812257434,1542.0951366399624,1553.1256261520375
53,1551.0536080030247,1551.0536080030247,1555.1165569045818,1569.7339847450041
54,1583.0322851645838,1583.0322851645838,1594.3290140179872,1610.4487510806296
55,1618.251554534743,1618.251554534743,1618.666350907772,1631.2490495736315
56,1660.2917980574566,1660.2917980574566,1663.408516670381,1683.3195116557588
57,1669.0717180805264,1669.0717180805264,1683.3195116557588,1695.9818863829375
58,1705.6432065616928,1705.6432065616928,1705.9487144044042,1721.1732950029939
59,1759.8332520729375,1759.8332520729375,1764.4252806251036,1777.0347298600277
60,1778.1272797696222,1778.1272797696222,1799.4131250940502,1815.0954558294493
61,1826.7962223071918,1826.7962223071918,1847.3529573436513,1860.5302680390466
62,1851.272880171262,1851.272880171262,1882.9156842513064,1893.8852465074751
63,1906.8308837114892,1906.8308837114892,1908.4703074246277,1919.280483370214
64,1929.1270214407161,1929.1270214407161,1930.871191313462,1946.2103528036785
65,1977.7082032812025,1977.7082032812025,1979.9710545535875,1993.1120164053755
66,2018.6702388929905,2018.6702388929905,2038.560597409671,2050.6681804439895
67,2071.485724110212,2071.485724110212,2085.608029066386,2105.6147463521793
68,2084.551834393506,2085.608029066386,2105.6147463521793,2122.3544581179945
69,2094.5941785992777,2094.5941785992777,2122.3544581179945,2137.781265761755
70,2113.14522669858,2113.14522669858,2137.781265761755,2151.599656915118
71,2158.215626162496,2158.215626162496,2179.354253782363,2195.378378046772
72,2166.9247257575794,2179.354253782363,2195.378378046772,2208.2383418513223
73,2185.9532592975143,2185.9532592975143,2208.2383418513223,2222.8642933965443
74,2231.238839886728,2231.238839886728,2235.1717245563077,2250.69503562772
75,2265.1594916749445,2265.1594916749445,2285.408169832075,2302.8427072677723
76,2299.863720684039,2299.863720684039,2307.709722459164,2324.2950595094176
77,2321.0650296772046,2321.0650296772046,2329.462744427656,2344.3033005113066
78,2360.988981516324,2360.988981516324,2363.6468896824085,2375.569909009904
79,2375.473837328434,2375.473837328434,2378.0386003280946,2398.816635348978
80,2422.893549417127,2422.893549417127,2446.763220516626,2464.4545539849846
81,2467.5858904749866,2467.5858904749866,2471.901857580467,2488.4924544896835
82,2481.923796850968,2481.923796850968,2494.80427178274,2509.0247212421873
83,2501.643615658803,2501.643615658803,2509.0247212421873,2525.1424930210587
84,2521.307422953041,2521.307422953041,2537.20650579978,2556.4403665812556
85,2560.1513087208195,2560.1513087208195,2569.993635284925,2588.7508313311096
86,2568.925626624878,2569.993635284925,2588.7508313311096,2602.311488578186
87,2600.657138431705,2600.657138431705,2609.1837019970644,2625.5966656256805
88,2640.618924492315,2640.618924492315,2654.8149049751596,2672.253852385055
89,2692.089598275739,2692.089598275739,2694.9377914706174,2710.6948754554924
90,2736.451179771742,2736.451179771742,2744.5721111621765,2762.0262030086415
91,2789.909361676081,2789.909361676081,2800.181053678933,2812.0864216372856
92,2824.833373765241,2824.833373765241,2829.2673361021716,2842.9099459031354
93,2850.2942308816428,2850.2942308816428,2854.0197835318136,2870.645142883891
94,2870.7680194950217,2870.7680194950217,2877.7283523569176,2898.518113963622
95,2884.0076456703828,2884.0076456703828,2898.518113963622,2915.453869695949
96,2901.0309089831744,2901.0309089831744,2925.8770514100297,2941.180146657078
97,2939.014146494075,2939.014146494075,2941.180146657078,2953.9705846416095
98,2958.3789735293385,2958.3789735293385,2962.510402602521,2979.7365683441503
99,2989.8419194322005,2989.8419194322005,2993.7018302643296,3002.835552812522
100,2999.510275376431,2999.510275376431,3006.9099580968227,3022.774019741917
101,3036.801893497927,3036.801893497927,3037.0240776930773,3057.7086836622357
102,3083.0301904649623,3083.0301904649623,3097.263870669294,3121.265060874308
103,3121.646346503939,3121.646346503939,3122.498053384979,3137.322114794579
104,3131.6729895076837,3131.6729895076837,3137.322114794579,3152.5489398926634
105,3166.298307949355,3166.298307949355,3186.1322796884656,3199.3671040869854
106,3215.8347933593222,3215.8347933593222,3231.480905177854,3250.4918550235443
107,3267.8236669225244,3267.8236669225244,3273.7298370863973,3289.544991067238
108,3292.152532756669,3292.152532756669,3296.8975171946504,3311.6804297001477
109,3319.14123418212,3319.14123418212,3319.2554734141345,3333.1395941121605
110,3372.3926202643324,3372.3926202643324,3395.707804575592,3410.327754986948
111,3400.9784165876554,3400.9784165876554,3410.327754986948,3425.9118948413625
112,3455.8562215430347,3455.8562215430347,3456.829585911021,3469.277380509031
113,3464.1132646045876,3464.1132646045876,3470.500396276585,3483.878388068051
114,3517.1183598845487,3517.1183598845487,3530.6428934566784,3545.985237112237
115,3525.518703765617,3530.6428934566784,3545.985237112237,3564.55429162192
116,3543.0963100003605,3543.0963100003605,3578.0373057012202,3592.319512985201
117,3591.6456284835845,3591.6456284835845,3594.6844701667515,3609.9332593405516
118,3624.447952315517,3624.447952315517,3630.6157614298727,3646.4559502396783
119,3677.321907700426,3677.321907700426,3722.5140650328863,3740.774280963282
120,3686.7756389392503,3722.5140650328863,3740.774280963282,3753.5280264162266
121,3702.3519800774347,3723.4959614569643,3753.5280264162266,3768.9703987672824
122,3730.5053252223147,3730.5053252223147,3768.9703987672824,3783.5881403037597
123,3741.407728713389,3756.957152997279,3783.5881403037597,3798.5584597131233
124,3764.246991208375,3764.246991208375,3798.5584597131233,3814.0805820307064
125,3796.951193626163,3796.951193626163,3814.0805820307064,3825.4269825308015
126,3822.1151057382613,3822.1151057382613,3825.9909994176437,3838.7583438733272
127,3844.4570015454697,3844.4570015454697,3852.0007500859447,3867.651860287685
128,3900.0489331466356,3900.0489331466356,3916.27599948438,3926.992281607289
129,3935.2141200331916,3935.2141200331916,3942.3121921844445,3954.129427204252
130,3990.021007007409,3990.021007007409,3995.4670542842346,4012.4284002761165
131,4039.127041781128,4039.127041781128,4041.549053091991,4063.2198119408117
132,4051.4803720242967,4051.4803720242967,4063.2198119408117,4083.159836285585
133,4098.952312546668,4098.952312546668,4114.089565442161,4128.870421031273
134,4133.421747474639,4133.421747474639,4144.460011887178,4159.112275560081
135,4157.654375617251,4157.654375617251,4163.176888902122,4185.447906313351
136,4166.943302482453,4166.943302482453,4188.848782070795,4205.093134132743
137,4191.157146543756,4191.157146543756,4205.093134132743,4221.9001857028015
138,4227.78151707787,4227.78151707787,4243.359465041251,4266.2228935873245
139,4271.595690372679,4271.595690372679,4271.736671629691,4283.084264608923
140,4293.524562277287,4293.524562277287,4299.826854694248,4315.146910297522
141,4342.478986620948,4342.478986620948,4342.549145534726,4356.970154956112
142,4350.992510303088,4350.992510303088,4360.715811579173,4376.185093637093
143,4364.575780380147,4364.575780380147,4376.185093637093,4386.417352033766
144,4412.393360482009,4412.393360482009,4417.477789099614,4436.824490239459
145,4464.677677534348,4464.677677534348,4474.160617650907,4484.670359532966
146,4486.38011681859,4486.38011681859,4488.2482441616285,4501.354411715831
147,4532.147020325708,4532.147020325708,4552.025252089208,4567.683577146553
148,4575.965951229368,4575.965951229368,4587.043283021335,4603.8200420809735
149,4610.800430439219,4610.800430439219,4613.38789204547,4618.9601185332995
150,4648.403643144922,4648.403643144922,4652.92354799679,4669.211531876115
151,4666.528056543195,4666.528056543195,4670.276742234844,4685.480958067425
152,4703.690320325655,4703.690320325655,4708.7414869330505,4726.6840777103525
153,4729.682693227891,4729.682693227891,4730.940164557634,4739.897244619099
154,4752.983605831218,4752.983605831218,4763.989487421893,4784.405762789845
155,4761.118010205669,4763.989487421893,4788.60075489378,4808.830636729854
156,4794.707218517034,4794.707218517034,4817.236233390401,4827.443165468994
157,4833.474207246372,4833.474207246372,4859.978531601119,4875.528517155601
158,4850.785591175588,4859.978531601119,4875.528517155601,4893.600746372088
159,4873.819081533746,4873.819081533746,4893.600746372088,4910.8678571645505
160,4892.721664236238,4892.721664236238,4910.8678571645505,4920.420014765145
161,4944.846135902832,4944.846135902832,4947.879218030879,4960.628043225335
162,4953.749814696342,4953.749814696342,4963.850024338869,4978.410447402317
163,4990.259724014646,4990.259724014646,4995.637414775722,5012.783331272055
164,5044.735394775898,5044.735394775898,5045.86778569548,5063.486502639387
165,5068.8596010501915,5068.8596010501915,5073.179046305586,5088.781324188554
166,5096.653379399143,5096.653379399143,5104.692933244252,5121.242420952726
167,5148.136706830417,5148.136706830417,5149.401909614934,5169.10227429934
168,5187.0511958890065,5187.0511958890065,5209.769055736506,5220.646070939328
169,5235.929772865577,5235.929772865577,5251.590627978973,5268.934616390187
170,5281.085514478287,5281.085514478287,5292.422711167115,5315.142169284191
171,5307.496168678942,5307.496168678942,5332.452635812995,5351.744967033679
172,5320.039551124838,5332.452635812995,5351.744967033679,5372.92320057063
173,5358.272052232215,5358.272052232215,5385.619664422401,5397.108113536275
174,5368.599087395331,5385.619664422401,5397.108113536275,5414.940689548328
175,5408.320753530735,5408.320753530735,5414.940689548328,5426.202440506312
176,5462.671052944518,5462.671052944518,5463.588628978018,5484.856660455692
177,5509.471717997262,5509.471717997262,5520.417028436356,5543.308002068556
178,5517.39774796217,5520.417028436356,5543.308002068556,5555.138142560037
179,5564.622596122186,5564.622596122186,5579.28368162056,5593.298144322741
180,5587.629278440426,5587.629278440426,5607.371242747579,5618.836529901818
181,5642.89213986537,5642.89213986537,5653.034423659737,5670.354837991728
182,5689.54292044146,5689.54292044146,5692.620015554618,5707.72032767299
183,5719.613889971693,5719.613889971693,5727.953508007607,5744.252119208217
184,5730.66526018977,5730.66526018977,5744.252119208217,5761.23488595172
185,5744.441376446314,5744.441376446314,5761.23488595172,5772.907381541219
186,5780.498667860324,5780.498667860324,5789.795915864512,5804.816387287083
187,5817.4293707582565,5817.4293707582565,5818.277403985602,5830.33639162577
188,5846.766390349369,5846.766390349369,5851.230914052725,5868.558289312689
189,5886.609502207953,5886.609502207953,5916.125984005598,5934.761849263693
190,5933.244352391381,5933.244352391381,5936.540824138064,5955.21345204576
191,5952.068693513448,5952.068693513448,5955.21345204576,5968.2864516911095
192,5983.671843224546,5983.671843224546,6007.826837556097,6018.4876307077375
193,5993.512382513586,6007.826837556097,6018.4876307077375,6033.426664087932
194,6022.309241875673,6022.309241875673,6033.426664087932,6049.920632261108
195,6067.347739152261,6067.347739152261,6068.278761903606,6086.348088995004
196,6086.794981647061,6086.794981647061,6113.6819666585725,6130.09758717998
197,6102.571655484507,6113.6819666585725,6130.09758717998,6148.077234797472
198,6131.985586246419,6131.985586246419,6148.077234797472,6167.650569807413
199,6148.828345355787,6148.828345355787,6167.650569807413,6185.169782004664
200,6167.46583305755,6167.46583305755,6187.1260646383535,6201.601468939428
201,6198.191876363219,6198.191876363219,6226.63922914996,6244.73504379834
202,6229.3206020607395,6229.3206020607395,6244.73504379834,6261.6626113278
203,6252.498476918238,6252.498476918238,6261.6626113278,6282.274186640502
204,6272.992149242364,6272.992149242364,6293.395890047571,6307.751931607734
205,6283.651222141667,6293.395890047571,6307.751931607734,6320.0061579423045
206,6298.347280875067,6298.347280875067,6320.0061579423045,6339.513765190608
207,6339.069357692127,6339.069357692127,6345.273069518582,6366.1214525763235
208,6379.790311120736,6379.790311120736,6450.079499285554,6465.8847314195955
209,6422.644090501222,6450.079499285554,6465.8847314195955,6480.669948054955
210,6449.447555912376,6459.372241348179,6480.669948054955,6500.531301707939
211,6463.769569950178,6477.678765060742,6500.531301707939,6518.635331572533
212,6507.064954853145,6507.064954853145,6518.635331572533,6533.726177105605
213,6539.473757209404,6539.473757209404,6545.634970182704,6560.394355810771
214,6578.420801461774,6578.420801461774,6599.942022369391,6618.584271055578
215,6597.572165246173,6599.942022369391,6618.584271055578,6631.943051482186
216,6645.916757855854,6645.916757855854,6652.787798314346,6665.944420157864
217,6664.247955625427,6664.247955625427,6668.78969979059,6682.574240230544
218,6711.097769125682,6711.097769125682,6727.928952706941,6741.743619306188
219,6743.4245328535635,6743.4245328535635,6747.072698421822,6762.033989003292
220,6763.842036543793,6763.842036543793,6764.263947219293,6781.0874269748165
221,6806.1305410908235,6806.1305410908235,6813.735143868559,6826.417165211192
222,6824.082679971206,6824.082679971206,6852.622060957459,6871.077062238406
223,6848.539872668131,6852.622060957459,6871.077062238406,6889.934889971858
224,6898.2404306502995,6898.2404306502995,6898.514543348426,6916.341885851684
225,6928.385848095347,6928.385848095347,6930.102606561653,6949.357938263484
226,6964.1177595669305,6964.1177595669305,6966.0382850145415,6980.875910164097
227,6975.9852067846095,6975.9852067846095,6990.109261284091,7008.2382234175275
228,6997.767220627484,6997.767220627484,7009.702300437603,7027.238588286636
229,7040.24324391623,7040.24324391623,7051.209247068434,7064.398998863221
230,7051.537481298171,7051.537481298171,7064.398998863221,7078.831893514218
231,7060.592908653974,7062.074008339572,7078.831893514218,7097.912716103436
232,7077.219558681604,7077.219558681604,7107.131034994232,7128.455736431493
233,7105.641959084246,7107.131034994232,7128.455736431493,7140.788496696034
234,7116.664400575299,7116.664400575299,7140.788496696034,7156.464413125944
235,7132.63393096276,7132.63393096276,7156.464413125944,7171.123363260797
236,7176.550369529558,7176.550369529558,7186.767252100259,7206.723784187698
237,7215.768814870068,7215.768814870068,7225.414064029821,7241.466807186588
238,7249.889132780578,7249.889132780578,7250.0828807897005,7263.52014031776
239,7262.825745192457,7262.825745192457,7273.125110459648,7288.449265726846
240,7286.450076230267,7286.450076230267,7298.239677422223,7314.035095503212
241,7338.694905361358,7338.694905361358,7340.644688175639,7356.2293718446535
242,7354.875821973633,7354.875821973633,7359.311265979616,7374.490195171609
243,7392.93958342085,7392.93958342085,7410.428840766666,7424.097870398499
244,7407.8348659939375,7410.428840766666,7424.097870398499,7440.846984094791
245,7453.578074237355,7453.578074237355,7471.722316102593,7488.370480745869
246,7501.8330870950895,7501.8330870950895,7504.51543629504,7518.689732115645
247,7545.203261830813,7545.203261830813,7562.750202175374,7574.272010652648
248,7576.37532526381,7576.37532526381,7579.825725643667,7598.167843342277
249,7616.601746234171,7616.601746234171,7645.403420136742,7659.659014369309
250,7634.146235140114,7645.403420136742,7678.231710344316,7694.474006650167
251,7675.083585805772,7678.231710344316,7708.5399872499565,7722.838444039835
252,7701.530867279847,7708.5399872499565,7729.229981845063,7748.373957639234
253,7738.197716587015,7738.197716587015,7770.486759436803,7782.41820030688
254,7774.374835369761,7774.374835369761,7787.645459633312,7801.438446616464
255,7815.2185633921845,7815.2185633921845,7831.998230401213,7844.356546908388
256,7836.485487590487,7836.485487590487,7844.356546908388,7859.867977129228
