# file created by code in harbour_fns_1896438.jl
# file created on 2026-03-09 at 15:39:54
# parameter: seed = 1896531
# parameter: T = 30000.0
# parameter: lower_interarrival = 7.8
# parameter: upper_interarrival = 55.8
# parameter: mean_process_times = [11.0, 16.0]
# parameter: max_queue = [9223372036854775807, 4]
# parameter: time_units = hours
id,arrival_time,start_service_times,start_service_times,completion_time
1,0.0,0.0,4.0335438245269835,22.29014824876074
2,26.12278661430406,26.12278661430406,44.18768262122517,57.3496563339405
3,66.9164707014915,66.9164707014915,72.95817649147918,86.51998275286195
4,105.4808019788759,105.4808019788759,113.05202454384298,124.51400356841513
5,124.64631442549414,124.64631442549414,133.16057949687223,149.76280141960964
6,176.48090636558086,176.48090636558086,190.31938262570338,200.0366704503254
7,231.65465878480722,231.65465878480722,233.79259660293695,245.23923800874454
8,258.29051238574914,258.29051238574914,273.2685564757615,289.1832329214799
9,279.09765883285195,279.09765883285195,289.1832329214799,302.70799443685036
10,329.10653494731855,329.10653494731855,332.15546019587725,345.5770002411854
11,381.8026857419521,381.8026857419521,403.43320036120133,416.3369013890779
12,402.41914900532015,403.43320036120133,427.8029979173569,443.37900517265393
13,414.8943608119833,427.8029979173569,443.37900517265393,464.20311518321154
14,443.1002439983965,443.1002439983965,464.20311518321154,475.80652993605923
15,489.9535574449463,489.9535574449463,495.9358582556367,511.33500710718585
16,533.252670523148,533.252670523148,533.6774632115664,551.6602391062752
17,566.2465270130606,566.2465270130606,575.3315000133996,594.363975601459
18,598.3288332724225,598.3288332724225,607.4880251065129,626.4733583161149
19,613.972205275923,613.972205275923,628.8132661495155,645.4039346506248
20,622.644586155432,628.8132661495155,648.2186196804788,665.2217636529134
21,640.2166651468099,648.2186196804788,665.2217636529134,680.1258920239269
22,651.1951739767998,651.1951739767998,680.1258920239269,700.3276106435949
23,666.4268762354988,666.4268762354988,700.3276106435949,711.6138448258989
24,682.5598756416473,686.3676163087205,711.6138448258989,734.3288287354426
25,734.2069708277603,734.2069708277603,735.2895428690861,750.8578672364772
26,760.9814066996828,760.9814066996828,774.5176116728159,791.1910835269022
27,810.2546975081721,810.2546975081721,827.8088586918485,848.1502031855746
28,858.6092923743882,858.6092923743882,874.7257486499143,889.2072244701606
29,888.0022058009298,888.0022058009298,904.8110277188919,919.2102651544037
30,938.954032789772,938.954032789772,940.8032728041818,956.1254427861163
31,958.3152619193627,958.3152619193627,969.0888975457948,981.5613598779765
32,994.5024896553927,994.5024896553927,1002.9066217988192,1012.9175647068082
33,1007.7223105670334,1007.7223105670334,1012.9175647068082,1028.3171517718647
34,1036.36727741589,1036.36727741589,1038.172299363856,1055.9691066214114
35,1083.1546258634148,1083.1546258634148,1084.492049694279,1098.6952623789175
36,1096.505800508467,1096.505800508467,1107.9983200574468,1125.5563211691656
37,1123.485671898012,1123.485671898012,1125.5563211691656,1140.214786871988
38,1158.2230452764918,1158.2230452764918,1162.2516020385413,1179.8403562974881
39,1170.2756155337465,1170.2756155337465,1179.8403562974881,1192.208004074884
40,1219.8211376477927,1219.8211376477927,1220.3631256414699,1236.9266525671883
41,1268.167376084403,1268.167376084403,1278.2179429220166,1295.1928790780921
42,1276.9319788538794,1278.2179429220166,1295.1928790780921,1313.4046092139054
43,1306.353134856142,1306.353134856142,1313.4046092139054,1330.547651018934
44,1333.3120735868301,1333.3120735868301,1342.7433879985608,1358.683410817421
45,1371.4533454788873,1371.4533454788873,1389.0870080844295,1408.2199407048386
46,1411.9064997380835,1411.9064997380835,1426.7505275633528,1443.094542486148
47,1430.2905725897072,1430.2905725897072,1443.094542486148,1459.0620791302085
48,1475.3150963478054,1475.3150963478054,1477.267807908675,1493.364317847182
49,1493.614844655179,1493.614844655179,1524.8525392913841,1542.7512325841878
50,1508.1159500556143,1524.8525392913841,1542.7512325841878,1560.8735934912138
51,1558.612747516174,1558.612747516174,1591.4226607863297,1603.8450232448984
52,1598.7345393935743,1598.7345393935743,1603.8450232448984,1623.9401317415688
53,1619.6113283763543,1619.6113283763543,1623.9401317415688,1635.2694336169782
54,1646.5058090498355,1646.5058090498355,1652.3944486635105,1670.3850358857267
55,1673.2774255582708,1673.2774255582708,1682.0710703779102,1697.371770736654
56,1697.7294728398547,1697.7294728398547,1701.2467676861727,1718.7712284222875
57,1745.5317320016732,1745.5317320016732,1749.3265158119211,1765.7327835692377
58,1763.1376013579852,1763.1376013579852,1778.8495038340996,1792.2905420552597
59,1799.549685600305,1799.549685600305,1801.671335668405,1819.6825016646899
60,1810.6100920379067,1810.6100920379067,1834.7435460804968,1845.9891977462323
61,1858.9480232637918,1858.9480232637918,1859.603925254097,1877.396169113146
62,1867.210180670961,1867.210180670961,1877.396169113146,1889.325760787431
63,1883.9608491452598,1883.9608491452598,1895.536134782638,1910.7696989891647
64,1910.4607816343337,1910.4607816343337,1922.2608100556781,1936.925615750518
65,1923.3690818881912,1923.3690818881912,1936.925615750518,1951.0523131179582
66,1960.3845732679551,1960.3845732679551,1964.4156918384965,1974.4943794455448
67,1983.5112717317775,1983.5112717317775,1992.7261579598976,2007.2694219230705
68,2000.2452528772951,2000.2452528772951,2007.2694219230705,2023.5631016721825
69,2010.1306003829884,2010.1306003829884,2025.9628986999714,2044.7096158352979
70,2041.956558408814,2041.956558408814,2061.054323134047,2074.1664512381117
71,2073.886837449591,2073.886837449591,2076.1180069589186,2097.209317175494
72,2083.706344609262,2083.706344609262,2097.209317175494,2116.9409833643394
73,2134.320401039094,2134.320401039094,2156.8847129438545,2174.2579956473605
74,2186.848475247714,2186.848475247714,2238.5577817428325,2256.716477721992
75,2216.8538121638658,2238.5577817428325,2256.716477721992,2277.110884805176
76,2253.598097454544,2253.598097454544,2277.110884805176,2288.09651910219
77,2300.07772241662,2300.07772241662,2300.3641115409873,2314.6735239601167
78,2313.255578638961,2313.255578638961,2322.103629214783,2338.960889348442
79,2343.2885101053203,2343.2885101053203,2349.2575890814846,2363.7028877014586
80,2381.527814186682,2381.527814186682,2390.774969221124,2405.553759684451
81,2390.2415230467423,2390.774969221124,2405.553759684451,2423.589869437098
82,2443.9811381440154,2443.9811381440154,2452.0808055006983,2465.0020980334934
83,2460.9489342620495,2460.9489342620495,2469.5740124760305,2481.487160902361
84,2494.994990775505,2494.994990775505,2495.1701395498285,2512.5491407168106
85,2542.9967227774423,2542.9967227774423,2549.220217526357,2565.893048956215
86,2555.875583601965,2555.875583601965,2575.9056071638993,2598.817968198263
87,2564.2511393856785,2575.9056071638993,2598.817968198263,2612.463222520904
88,2578.9456749885635,2578.9456749885635,2612.463222520904,2623.177051708994
89,2617.364359340985,2617.364359340985,2636.750695172824,2648.714503842833
90,2643.7942083362814,2643.7942083362814,2648.714503842833,2663.8686887464364
91,2662.9534452797066,2662.9534452797066,2672.920714059311,2684.5637333541335
92,2674.7301856135973,2674.7301856135973,2684.5637333541335,2696.0234282621855
93,2704.8961008306455,2704.8961008306455,2708.6007462140733,2722.925218604894
94,2736.1659374210235,2736.1659374210235,2740.8958676583957,2758.5149543661473
95,2789.678300668837,2789.678300668837,2793.3637914879155,2811.8696009811565
96,2802.643685134017,2802.643685134017,2811.8696009811565,2827.1012451460947
97,2829.3037702969395,2829.3037702969395,2834.484002258854,2848.833648893065
98,2871.328217234119,2871.328217234119,2901.3825310430143,2915.277640095267
99,2882.3194930073573,2901.3825310430143,2915.277640095267,2933.8409150174175
100,2894.2300311863764,2907.0155240122863,2933.8409150174175,2948.8253157696286
101,2905.0173319408755,2920.4334789461404,2948.8253157696286,2969.2441812766942
102,2950.4365041632977,2950.4365041632977,2971.022487944069,2983.8986168093606
103,2997.0087676318667,2997.0087676318667,3005.2408578266372,3019.1264553169144
104,3038.6808696657595,3038.6808696657595,3048.0112045164874,3065.443726311288
105,3082.1688580165614,3082.1688580165614,3087.282998832095,3105.4751207556587
106,3090.7061148221205,3090.7061148221205,3105.4751207556587,3117.782091219861
107,3106.6039455007494,3106.6039455007494,3117.782091219861,3135.57618513806
108,3161.864040181002,3161.864040181002,3164.536008341816,3180.1145808912947
109,3178.638874425948,3178.638874425948,3185.749066770057,3202.3888494369758
110,3190.54525265131,3190.54525265131,3202.3888494369758,3219.955052357671
111,3211.624011653764,3211.624011653764,3220.1188968145575,3239.1242830895058
112,3256.7942303984423,3256.7942303984423,3269.215595393754,3286.5494266171254
113,3302.599558333074,3302.599558333074,3305.8381526844496,3326.1660471885098
114,3350.292049283718,3350.292049283718,3364.687906885205,3376.4510281112725
115,3360.6704214316705,3364.687906885205,3379.630951022281,3397.6150582235564
116,3378.722597643613,3379.630951022281,3397.6150582235564,3415.0417547831375
117,3387.6720773717434,3390.932399524038,3415.0417547831375,3438.6839141072724
118,3406.920273729292,3406.920273729292,3438.6839141072724,3450.901555131039
119,3439.103770868952,3439.103770868952,3450.901555131039,3471.5000880250104
120,3480.6330905374643,3480.6330905374643,3498.030208234832,3516.1779965245896
121,3530.0619392725484,3530.0619392725484,3539.0462409323745,3551.1932642805127
122,3566.2698035917915,3566.2698035917915,3571.340277078133,3582.3905643700027
123,3578.18709243038,3578.18709243038,3582.3905643700027,3601.700855018887
124,3630.6640690666736,3630.6640690666736,3633.2367773459705,3653.0733783766973
125,3683.8266673398143,3683.8266673398143,3699.1549769557114,3710.8241389275086
126,3701.5628140630415,3701.5628140630415,3710.8241389275086,3728.595203155391
127,3743.566274897653,3743.566274897653,3752.574460621044,3761.286406099982
128,3780.949387492154,3780.949387492154,3801.0688394419362,3811.4208827612465
129,3807.9652404215453,3807.9652404215453,3811.4208827612465,3825.8755201524773
130,3852.398604590707,3852.398604590707,3860.401634191959,3874.951075163816
131,3867.3501029898525,3867.3501029898525,3874.951075163816,3893.7656776982835
132,3917.6421408311626,3917.6421408311626,3918.6563003487095,3931.3264877294287
133,3973.403430817868,3973.403430817868,3982.9494125402307,3995.5190535294637
134,4021.133421006223,4021.133421006223,4036.9937347091263,4048.956421490584
135,4037.0763538905485,4037.0763538905485,4048.956421490584,4063.467645393557
136,4057.413745307368,4057.413745307368,4063.467645393557,4079.4291912732797
137,4094.027838667966,4094.027838667966,4094.606999169865,4112.976286985471
138,4102.680652455599,4102.680652455599,4119.200104062743,4137.004801933096
139,4145.996865827332,4145.996865827332,4157.95296323496,4173.581682607548
140,4166.904042046466,4166.904042046466,4178.186495981017,4190.969256390126
141,4206.484180044878,4206.484180044878,4211.962061485592,4227.7843690863365
142,4243.453768428483,4243.453768428483,4246.733715467696,4261.821511249164
143,4276.191114556242,4276.191114556242,4285.145236360242,4304.3943965174885
144,4324.913456072924,4324.913456072924,4330.787894214359,4347.277888499902
145,4351.211370582341,4351.211370582341,4360.607504878789,4374.570161365884
146,4380.047872804564,4380.047872804564,4381.511577380153,4398.94129058568
147,4408.604050210881,4408.604050210881,4415.958668740902,4431.269786042324
148,4452.907719787416,4452.907719787416,4479.564146975285,4495.958178334052
149,4496.313825869576,4496.313825869576,4497.682259388421,4511.553109553058
150,4512.078920062305,4512.078920062305,4517.745471291157,4535.874106194641
151,4533.086952485494,4533.086952485494,4557.711006620407,4575.412355467325
152,4587.513777909387,4587.513777909387,4589.9300501743855,4606.819782316023
153,4614.618071142991,4614.618071142991,4637.544963783917,4652.472843916562
154,4662.733384123178,4662.733384123178,4666.880981424506,4682.072892260515
155,4699.167669653106,4699.167669653106,4699.467297178418,4712.500474660561
156,4717.133694283406,4717.133694283406,4734.718852063954,4749.393039557567
157,4754.83773757448,4754.83773757448,4759.002608056254,4779.001322652995
158,4787.0122591838435,4787.0122591838435,4794.481178070026,4811.344728367281
159,4824.901816811307,4824.901816811307,4830.1667022800675,4840.986719713566
160,4856.755034907424,4856.755034907424,4864.375522277003,4879.318601811324
161,4904.206026990764,4904.206026990764,4920.379370063354,4935.045164499772
162,4940.723004163827,4940.723004163827,4950.705849089408,4965.311401783056
163,4968.063957269129,4968.063957269129,4987.238537355983,5002.240077170183
164,5021.869043312925,5021.869043312925,5027.753795149359,5040.840515526988
165,5034.228343381337,5034.228343381337,5040.840515526988,5051.214488579955
166,5066.6218982503915,5066.6218982503915,5071.817424559525,5085.103985436306
167,5085.668804542482,5085.668804542482,5085.785617475135,5107.022224716583
168,5123.247159728546,5123.247159728546,5126.089444164509,5140.524683145925
169,5176.352024801116,5176.352024801116,5205.078040191526,5221.129730625935
170,5212.228624168933,5212.228624168933,5244.818010443676,5262.0697982893425
171,5236.615359857635,5244.818010443676,5262.0697982893425,5274.527154226618
172,5250.637575405356,5258.628864006704,5274.564788698387,5288.670955312755
173,5262.692037984982,5274.564788698387,5288.670955312755,5308.024856227187
174,5298.138393600462,5298.138393600462,5313.07362141792,5325.832440251024
175,5344.209150329988,5344.209150329988,5348.755940539989,5364.596434284942
176,5394.447181085429,5394.447181085429,5399.846674823393,5413.655562534302
177,5421.965104318858,5421.965104318858,5423.545140815263,5435.730321699568
178,5434.752528054793,5434.752528054793,5438.783801473818,5456.96459165496
179,5445.953713988516,5445.953713988516,5456.96459165496,5474.418302117964
180,5485.113758793666,5485.113758793666,5493.176880444116,5510.504999822537
181,5507.78930197079,5507.78930197079,5522.48667056244,5538.351106679001
182,5543.098775255461,5543.098775255461,5550.256413361747,5574.8813658884565
183,5594.657486049178,5594.657486049178,5611.507923182141,5620.197025577058
184,5642.813375875876,5642.813375875876,5651.742881492688,5661.645204358809
185,5664.486854378757,5664.486854378757,5669.191730477758,5687.578225725982
186,5685.073822635635,5685.073822635635,5687.578225725982,5705.516038266788
187,5719.814026301527,5719.814026301527,5720.824492814623,5745.06172578486
188,5768.900027127123,5768.900027127123,5771.5640244395545,5787.546660789024
189,5801.1657060870075,5801.1657060870075,5806.9144074082415,5826.68262599184
190,5855.876198769174,5855.876198769174,5861.407892009306,5876.327807195795
191,5910.089452108982,5910.089452108982,5911.0613631367105,5923.79113323356
192,5960.789821695534,5960.789821695534,5962.838149037419,5976.630199882991
193,6004.31912659564,6004.31912659564,6005.713182785618,6018.477580175908
194,6018.435262611595,6018.435262611595,6030.579157134063,6046.186166446146
195,6038.292049622184,6038.292049622184,6049.942351653147,6068.095737722654
196,6085.6350907711185,6085.6350907711185,6102.780102458405,6113.792354171849
197,6126.051722029527,6126.051722029527,6130.303115291703,6146.134132311191
198,6174.37493135371,6174.37493135371,6190.00691123922,6209.319243557812
199,6205.724668756493,6205.724668756493,6227.486561453995,6241.668276710716
200,6258.296503853796,6258.296503853796,6270.764285530276,6285.418748471459
201,6288.7663968243605,6288.7663968243605,6292.207665863011,6305.918183112449
202,6296.729522738095,6296.729522738095,6306.469194040956,6320.946133044948
203,6334.390557598964,6334.390557598964,6339.548201686145,6355.368578798074
204,6352.244982918401,6352.244982918401,6358.922179228682,6372.838254115691
205,6381.302999871669,6381.302999871669,6381.716803504931,6397.194868949946
206,6389.918830311091,6389.918830311091,6410.601151082617,6427.905431990741
207,6443.920824553861,6443.920824553861,6447.020581264106,6466.636002972797
208,6467.121451791352,6467.121451791352,6493.229418491708,6508.611932790486
209,6484.661371630531,6493.229418491708,6541.957418709542,6555.570151350625
210,6539.069006430393,6541.957418709542,6555.570151350625,6573.390920833108
211,6570.696902470073,6570.696902470073,6573.390920833108,6590.219514252954
212,6585.193468910908,6585.193468910908,6590.219514252954,6602.296690705409
213,6623.385331809014,6623.385331809014,6625.7322017838715,6644.503174068525
214,6655.659278656554,6655.659278656554,6663.776836825949,6680.9126817932965
215,6669.0098973229215,6669.0098973229215,6680.9126817932965,6697.916978930451
216,6716.211637562316,6716.211637562316,6722.297316615726,6739.056408018532
217,6749.263334486247,6749.263334486247,6790.478152815482,6806.133573788907
218,6779.440172125056,6790.478152815482,6820.581271263444,6836.631638028979
219,6823.838826783352,6823.838826783352,6836.631638028979,6858.7020385585965
220,6860.491908639621,6860.491908639621,6867.696978327335,6886.006496799957
221,6883.470350896224,6883.470350896224,6939.474958156462,6948.556721162759
222,6926.574284257311,6939.474958156462,6948.556721162759,6964.990290362964
223,6938.955663392912,6940.713725899716,6964.990290362964,6985.710827832451
224,6979.649148736537,6979.649148736537,6994.045227384686,7011.565172686098
225,7028.820037253813,7028.820037253813,7029.135297893924,7045.134771321942
226,7053.347722616237,7053.347722616237,7060.72608624696,7081.665445402434
227,7080.424411372804,7080.424411372804,7089.588028132925,7105.076587916129
228,7125.65867484827,7125.65867484827,7131.685530370789,7148.187126960245
229,7178.22034474118,7178.22034474118,7187.345765211432,7199.0305797418605
230,7188.851788241667,7188.851788241667,7226.2188126463025,7239.711100371357
231,7215.996752952945,7226.2188126463025,7266.533362415329,7281.868718465714
232,7231.0784350598715,7266.533362415329,7281.868718465714,7296.161751639541
233,7250.6448474141225,7275.868210806657,7296.161751639541,7306.299112615995
234,7259.506918668865,7288.472432116576,7312.750509302571,7325.555660707731
235,7298.449543426807,7312.750509302571,7325.555660707731,7342.007156481733
236,7318.000669561178,7324.556751782657,7342.007156481733,7354.430132940782
237,7342.877300187215,7342.877300187215,7359.859197271362,7376.277323615407
238,7358.834356328667,7359.859197271362,7376.277323615407,7392.03711154871
239,7384.164220195456,7384.164220195456,7392.03711154871,7405.879348434089
240,7415.476551361204,7415.476551361204,7425.749073504166,7439.45282901841
241,7424.526481581484,7425.749073504166,7450.197295497213,7465.060763759812
242,7442.973505909631,7450.197295497213,7492.072921865636,7506.089613341674
243,7468.787770407012,7492.072921865636,7523.582673759182,7536.338968803736
244,7507.872412497063,7523.582673759182,7536.338968803736,7556.300768048801
245,7515.71776952793,7528.391373812678,7556.300768048801,7575.833461082035
246,7533.3597501673585,7546.71702536689,7575.833461082035,7591.545950367365
247,7545.438089855272,7557.133775009899,7591.545950367365,7605.945408815935
248,7562.650406083265,7567.977174531203,7605.945408815935,7620.320533940571
249,7616.012767153892,7616.012767153892,7661.450864370414,7675.4546972531425
250,7644.102722240778,7661.450864370414,7675.4546972531425,7693.747338884068
251,7688.815926782945,7688.815926782945,7725.5042924941,7741.197126833779
252,7734.411935287545,7734.411935287545,7780.441602363301,7798.444997422394
253,7775.974061001916,7780.441602363301,7798.444997422394,7817.480011733259
254,7789.915533303386,7789.915533303386,7817.480011733259,7828.209756581476
255,7829.573410726048,7829.573410726048,7841.438168290248,7857.267061144361
