# file created by code in harbour_fns_1896438.jl
# file created on 2026-03-09 at 15:40:00
# parameter: seed = 1896606
# parameter: T = 30000.0
# parameter: lower_interarrival = 7.8
# parameter: upper_interarrival = 55.8
# parameter: mean_process_times = [11.0, 16.0]
# parameter: max_queue = [9223372036854775807, 4]
# parameter: time_units = hours
id,arrival_time,start_service_times,start_service_times,completion_time
1,0.0,0.0,12.975550207090862,26.27531741333189
2,38.58992792410886,38.58992792410886,47.85317349986169,62.68809989726134
3,71.29138814172522,71.29138814172522,92.85811791173433,110.22905723838706
4,93.27893771252884,93.27893771252884,110.22905723838706,128.7989282977088
5,135.68578963251386,135.68578963251386,139.47114633875168,155.31749394495435
6,165.4164337048196,165.4164337048196,171.08830223688045,188.06331947955215
7,181.56851790046593,181.56851790046593,196.69483205502388,212.80991275029234
8,217.03499555854586,217.03499555854586,239.69917522325898,250.88960265279687
9,240.53983700095114,240.53983700095114,273.0986941270583,291.4238252840044
10,284.530512872347,284.530512872347,291.4238252840044,310.0639686527278
11,318.5622287294694,318.5622287294694,319.53687028902806,335.72155435010444
12,335.6307125549767,335.6307125549767,337.05763647304303,354.15271285841135
13,378.92505957387255,378.92505957387255,406.4064487750963,417.6175474460912
14,389.18835560484433,406.4064487750963,417.6175474460912,434.07400710205104
15,423.055727609614,423.055727609614,434.07400710205104,447.1868193383939
16,449.3081881188923,449.3081881188923,469.8645287576808,490.50366527082133
17,494.40458524113114,494.40458524113114,495.7741036353391,512.617894371614
18,525.6064026570276,525.6064026570276,529.9478330074995,550.8025865218623
19,542.9182880772049,542.9182880772049,550.9072228259859,566.9785342115304
20,558.7697669197933,558.7697669197933,568.5587713180996,584.0707549203918
21,603.2926896883316,603.2926896883316,608.3782256832965,620.7821017363402
22,637.8863053897007,637.8863053897007,638.3334468687951,657.6427177141641
23,654.0769220482745,654.0769220482745,658.8217803583261,676.3370513158468
24,696.9397094451433,696.9397094451433,702.1180316711708,719.750690689942
25,745.161501915073,745.161501915073,746.434932127828,758.3659351099209
26,755.5541034133984,755.5541034133984,767.7187243492016,781.8052524330017
27,805.0326734365017,805.0326734365017,820.3787423772013,836.1253604674869
28,851.5839603136942,851.5839603136942,852.2719154281377,868.3271420666607
29,902.3282994711066,902.3282994711066,911.6591932910957,929.9546916060393
30,944.4446393546854,944.4446393546854,966.6667663873111,984.963876032955
31,999.2837095284057,999.2837095284057,1051.798444089861,1065.739787971763
32,1014.642076284315,1051.798444089861,1068.0552754469009,1079.4590746468425
33,1032.6576668639743,1068.0552754469009,1079.4590746468425,1092.9203636446443
34,1047.9187501994495,1069.5167409033572,1092.9203636446443,1108.4272558801754
35,1076.1683512651232,1076.1683512651232,1108.4272558801754,1125.5868443409902
36,1121.731964726508,1121.731964726508,1132.3531819934642,1146.9091202122002
37,1146.74041327934,1146.74041327934,1149.5748612596517,1165.0452031480263
38,1200.673787516758,1200.673787516758,1200.8441075588598,1215.0729047803532
39,1238.6729613198909,1238.6729613198909,1252.835260226395,1270.0518023343827
40,1267.8244466959018,1267.8244466959018,1293.2473368589517,1314.5258720549793
41,1279.5188799649643,1293.2473368589517,1314.5258720549793,1331.4222525979926
42,1287.5786483449422,1302.7438626545643,1331.4222525979926,1345.6532348138714
43,1309.1730471632623,1310.8636993117943,1345.6532348138714,1362.425722468717
44,1343.9503809897192,1343.9503809897192,1362.425722468717,1378.695636201291
45,1381.3269923217144,1381.3269923217144,1403.6738139153379,1418.3211138228264
46,1405.6905814914667,1405.6905814914667,1418.9266640906317,1433.9366122305064
47,1417.553255571419,1418.9266640906317,1433.9366122305064,1448.0737670768215
48,1454.3559046148268,1454.3559046148268,1475.6460551441155,1487.2618111756628
49,1503.2987693065702,1503.2987693065702,1529.827671984776,1548.655939826641
50,1530.7167973011753,1530.7167973011753,1548.655939826641,1566.38243407073
51,1559.5815569661781,1559.5815569661781,1576.6431767597821,1591.3071493924863
52,1592.0781700023047,1592.0781700023047,1593.0228994824622,1608.5353802917882
53,1604.5380762489813,1604.5380762489813,1627.9249116253573,1645.5891325527925
54,1626.3235039412968,1627.9249116253573,1645.5891325527925,1659.971341277501
55,1639.9521914436548,1639.9521914436548,1660.4389050324212,1675.175372407594
56,1678.772339304867,1678.772339304867,1690.6232161120554,1702.9714861900736
57,1714.925294550266,1714.925294550266,1724.4721914658758,1741.4672466155873
58,1740.6517184242339,1740.6517184242339,1741.803120831879,1759.4428707355075
59,1784.3842114793354,1784.3842114793354,1792.4290553066967,1807.443454944362
60,1817.7920772290986,1817.7920772290986,1821.8209278124348,1841.4225571889403
61,1850.8540967945878,1850.8540967945878,1854.1631010334454,1870.7095599069246
62,1865.0321330900358,1865.0321330900358,1870.7095599069246,1885.1427534814266
63,1884.7435534949698,1884.7435534949698,1892.8113552698608,1905.509760701655
64,1897.2411129651598,1897.2411129651598,1911.8234416750554,1935.0761624157742
65,1927.765208750238,1927.765208750238,1947.1441513301004,1963.7212958425957
66,1962.886563998782,1962.886563998782,1966.2003366706872,1984.8757080079868
67,1977.9011554411206,1977.9011554411206,1984.8757080079868,2001.5813114318373
68,2026.1515158551006,2026.1515158551006,2031.9247056202337,2047.2137953675042
69,2070.531505005787,2070.531505005787,2077.7306036802415,2094.402951772552
70,2088.055637848983,2088.055637848983,2099.717220017594,2119.089860535303
71,2137.9877243499227,2137.9877243499227,2159.831866492945,2175.1528834454266
72,2160.055303938974,2160.055303938974,2175.1528834454266,2188.8908120387937
73,2206.007377487412,2206.007377487412,2238.7783085040555,2256.9441013117244
74,2249.7827062564506,2249.7827062564506,2256.9441013117244,2270.21007232215
75,2300.7032764237033,2300.7032764237033,2302.4471578187217,2320.3383613833953
76,2324.8073368206096,2324.8073368206096,2329.490611006968,2346.4511586391222
77,2351.179361062799,2351.179361062799,2356.2364864585315,2372.0876399869785
78,2364.9532929277525,2364.9532929277525,2372.0876399869785,2386.4934970802165
79,2379.1666631919898,2379.1666631919898,2386.4934970802165,2401.6608794703366
80,2419.801398619426,2419.801398619426,2436.4256637681774,2454.3216240191273
81,2439.7293345914813,2439.7293345914813,2454.3216240191273,2468.554177425277
82,2460.2422672537,2460.2422672537,2468.554177425277,2485.1114049255966
83,2497.4778077169817,2497.4778077169817,2501.1412466754277,2510.98364795134
84,2518.88306625489,2518.88306625489,2528.3493413180004,2544.827768415099
85,2553.1748646912106,2553.1748646912106,2558.490075184424,2573.9518982993127
86,2569.1993357597826,2569.1993357597826,2573.9518982993127,2593.8791610095377
87,2617.456152237918,2617.456152237918,2619.4847076655765,2639.6151876454437
88,2637.4556076166864,2637.4556076166864,2641.9202854434097,2657.7782883278846
89,2680.369643846025,2680.369643846025,2683.7671524372786,2697.702705688443
90,2703.6164037772087,2703.6164037772087,2707.961879612769,2721.636067331628
91,2734.574252037835,2734.574252037835,2742.1085632356517,2757.1216006244367
92,2744.4678521820665,2744.4678521820665,2757.1216006244367,2763.7811259154223
93,2793.6098323000183,2793.6098323000183,2808.319165272147,2823.5441284009626
94,2828.0948138988488,2828.0948138988488,2833.8175558088346,2851.4713089957686
95,2852.662255215404,2852.662255215404,2860.1156718483867,2870.427927101716
96,2890.4045563404657,2890.4045563404657,2908.9784132618747,2921.8631796611608
97,2929.5386574358913,2929.5386574358913,2932.46960741012,2948.6938187520723
98,2969.013288788206,2969.013288788206,2976.0029271172853,2990.449124917727
99,3019.279247576636,3019.279247576636,3028.452203330696,3042.707461321357
100,3065.2749381701306,3065.2749381701306,3068.881567729482,3087.6877296928074
101,3108.9572876214515,3108.9572876214515,3111.279371241647,3127.193465952633
102,3152.85214740188,3152.85214740188,3157.1289475332724,3178.606098613161
103,3171.525669704153,3171.525669704153,3178.606098613161,3192.3873704024154
104,3180.019014852494,3180.019014852494,3192.3873704024154,3207.2245285585445
105,3220.5223666745674,3220.5223666745674,3226.1360941144517,3248.8015757598714
106,3256.2309222024114,3256.2309222024114,3261.911239879095,3276.6761632233683
107,3265.1988216280697,3265.1988216280697,3286.762125913949,3299.2046336456533
108,3293.8366417755265,3293.8366417755265,3299.2046336456533,3312.5415018982494
109,3334.916247234852,3334.916247234852,3341.157813539395,3359.019183479575
110,3358.3564034702677,3358.3564034702677,3394.6357828945293,3412.8167558497626
111,3403.335419813355,3403.335419813355,3413.0978782014304,3427.8065583046773
112,3424.566496827361,3424.566496827361,3427.8065583046773,3441.470021026113
113,3452.2798722590787,3452.2798722590787,3480.1622815346173,3490.9688910743935
114,3477.8550328590763,3480.1622815346173,3490.9688910743935,3510.6833766169484
115,3519.433947354779,3519.433947354779,3538.9116753254207,3552.2016708127308
116,3533.541781089798,3538.9116753254207,3552.2016708127308,3563.349845697008
117,3585.5343041471347,3585.5343041471347,3593.488277060097,3615.1624121999175
118,3617.450030777365,3617.450030777365,3646.282315001986,3663.169512539743
119,3628.4478544581098,3646.282315001986,3663.169512539743,3677.5441275706225
120,3656.432366641435,3656.432366641435,3677.5441275706225,3690.8248361364617
121,3669.6393147814797,3669.6393147814797,3690.8248361364617,3706.6400561641058
122,3696.706788653756,3696.706788653756,3706.6400561641058,3718.820182374351
123,3706.043018407385,3706.043018407385,3718.820182374351,3737.405799901979
124,3743.692079798592,3743.692079798592,3758.71766478805,3777.331592066183
125,3784.135779251379,3784.135779251379,3795.6267197045077,3815.1624147323287
126,3827.7174400050903,3827.7174400050903,3863.63860899783,3884.458051214904
127,3855.3323876926065,3863.63860899783,3884.458051214904,3899.388251248343
128,3884.636418991098,3884.636418991098,3899.388251248343,3910.8699943102756
129,3905.9243403026935,3905.9243403026935,3910.8800450349204,3927.9919746368114
130,3941.2132038248274,3941.2132038248274,3944.7617542900807,3962.8325980080294
131,3985.9393527446314,3985.9393527446314,3997.0334209606694,4016.11831787465
132,4016.29266459237,4016.29266459237,4017.7855303826364,4035.9613832763266
133,4068.3617585505112,4068.3617585505112,4089.002383315939,4101.548933355625
134,4116.267514946949,4116.267514946949,4122.782419174577,4140.249966043003
135,4135.6063345954335,4135.6063345954335,4140.249966043003,4153.368087271012
136,4187.839568336858,4187.839568336858,4189.9802206734375,4210.667354790621
137,4240.411115792929,4240.411115792929,4243.832582877278,4265.583929485803
138,4257.629798667069,4257.629798667069,4283.385945224601,4303.301303713771
139,4278.138006346674,4283.385945224601,4303.301303713771,4315.269957804466
140,4333.5555087642615,4333.5555087642615,4338.234197733296,4358.810204274702
141,4359.860209378966,4359.860209378966,4362.006740182762,4377.20387335093
142,4414.470378521258,4414.470378521258,4419.88185350396,4436.789447218987
143,4457.933452364571,4457.933452364571,4476.435925074668,4493.1389751379065
144,4499.33292632989,4499.33292632989,4524.044388988455,4541.944881631863
145,4518.223957992565,4524.044388988455,4541.944881631863,4559.739924013145
146,4573.685980061998,4573.685980061998,4587.151276826027,4604.556602753961
147,4627.741080413313,4627.741080413313,4633.3060170271365,4648.333599761129
148,4671.586792801414,4671.586792801414,4683.633073374861,4697.402618793308
149,4707.242318002397,4707.242318002397,4722.018343309651,4738.054843641183
150,4746.854376990849,4746.854376990849,4757.769985726016,4771.025764037626
151,4764.795279210635,4764.795279210635,4771.025764037626,4783.267961491214
152,4817.385209591141,4817.385209591141,4818.714925759371,4839.312336588807
153,4870.002990591422,4870.002990591422,4870.599865995091,4882.369370729496
154,4906.218758122629,4906.218758122629,4907.213330121586,4919.287804330948
155,4952.1919514616775,4952.1919514616775,4963.243386449061,4977.36978234798
156,4977.017316735471,4977.017316735471,4983.681348001806,5003.392990761526
157,5029.850468982855,5029.850468982855,5031.690177296147,5044.429541628618
158,5050.602174037732,5050.602174037732,5055.675856741448,5069.972963247043
159,5073.605716305171,5073.605716305171,5081.5626326065785,5094.967907835166
160,5127.249210817367,5127.249210817367,5143.757619147553,5157.756134387659
161,5172.97454605733,5172.97454605733,5175.605570065444,5188.43865545135
162,5222.393802873562,5222.393802873562,5238.790430217602,5257.165319771591
163,5248.971662141151,5248.971662141151,5257.165319771591,5273.729898737185
164,5300.868280594889,5300.868280594889,5307.125667602253,5322.7444215397745
165,5322.602553745884,5322.602553745884,5345.603032893938,5361.929644709262
166,5346.132481555489,5346.132481555489,5361.929644709262,5380.405342441011
167,5386.249638217182,5386.249638217182,5387.845449845354,5404.094127093936
168,5414.018826362052,5414.018826362052,5416.608374673235,5437.257008794231
169,5423.0520044854,5423.0520044854,5437.257008794231,5454.304987731274
170,5465.520754202479,5465.520754202479,5486.129513437683,5503.224225518767
171,5490.636021781718,5490.636021781718,5520.280780786723,5537.135839113223
172,5517.898372818164,5520.280780786723,5537.135839113223,5557.322758725495
173,5559.2095772041575,5559.2095772041575,5568.938924831634,5586.475521674568
174,5598.048914743515,5598.048914743515,5606.4665523118465,5625.772056032042
175,5644.345588150538,5644.345588150538,5645.034851278579,5661.363489466158
176,5669.228823617051,5669.228823617051,5684.108060208024,5701.389693399328
177,5680.391282667731,5684.108060208024,5701.389693399328,5721.181065642257
178,5710.05605052314,5710.05605052314,5721.181065642257,5737.3143663554165
179,5749.301395665465,5749.301395665465,5774.776825965604,5793.712340817443
180,5773.72928161044,5774.776825965604,5793.712340817443,5810.983364241962
181,5793.785993059529,5793.785993059529,5810.983364241962,5830.106288533921
182,5820.9491452416,5820.9491452416,5833.118589365391,5854.865785966653
183,5846.3041609910715,5846.3041609910715,5854.865785966653,5872.826232355534
184,5896.309215880739,5896.309215880739,5898.687503107862,5913.918634210023
185,5918.135040801427,5918.135040801427,5922.192794420496,5938.398862631411
186,5939.887762172532,5939.887762172532,5951.609013899616,5966.622758500728
187,5956.039608678935,5956.039608678935,5980.849520815738,5997.883046057085
188,5993.552076611655,5993.552076611655,6010.874850397527,6028.896865421854
189,6002.369266205969,6010.874850397527,6036.69284776209,6051.878024070726
190,6035.405146298039,6036.69284776209,6051.878024070726,6065.531609414215
191,6077.039128882683,6077.039128882683,6077.8174157623425,6094.485893624658
192,6112.319454099308,6112.319454099308,6118.228166223061,6132.72336414535
193,6155.12187724833,6155.12187724833,6160.137014398954,6173.114226772055
194,6185.62078186628,6185.62078186628,6200.68449542533,6214.209427795646
195,6205.256684623923,6205.256684623923,6216.016880939961,6230.887886246536
196,6219.445596709787,6219.445596709787,6230.887886246536,6249.459046195547
197,6241.811114596164,6241.811114596164,6255.78202416747,6270.342365219256
198,6252.259371629153,6255.78202416747,6270.342365219256,6290.140892967232
199,6294.169735128415,6294.169735128415,6294.37881846729,6310.406759109788
200,6320.532418437602,6320.532418437602,6327.286913905507,6346.361167838293
201,6333.513629222909,6333.513629222909,6369.287073929688,6380.787420159421
202,6356.768137815187,6369.287073929688,6380.787420159421,6400.522814648783
203,6379.58680374941,6379.58680374941,6400.522814648783,6416.809181613482
204,6428.651531908369,6428.651531908369,6445.433728288413,6466.166521896485
205,6476.793105151212,6476.793105151212,6484.702412562189,6499.218366733222
206,6508.6741336659925,6508.6741336659925,6515.432858458357,6534.257729570533
207,6547.961157906985,6547.961157906985,6574.359272486879,6587.337455441052
208,6570.104973759135,6574.359272486879,6587.337455441052,6601.150868250062
209,6611.243119890477,6611.243119890477,6616.079435894842,6628.044123495882
210,6660.896435417515,6660.896435417515,6683.975335837864,6696.44613106361
211,6699.231180961797,6699.231180961797,6706.085905983324,6717.068584436309
212,6737.665954001744,6737.665954001744,6755.926182389461,6775.072779438787
213,6781.3596385724295,6781.3596385724295,6788.123683547805,6805.117628918922
214,6826.770540748141,6826.770540748141,6834.339754671895,6848.038483094089
215,6852.383145849453,6852.383145849453,6863.494479696494,6877.158200697143
216,6905.0786255404855,6905.0786255404855,6933.928295073581,6947.618891749259
217,6938.012708812685,6938.012708812685,6948.688653597282,6961.426598635519
218,6978.911078400512,6978.911078400512,6986.225439110607,7005.042958258998
219,7009.567388309,7009.567388309,7016.158709436712,7026.655672492588
220,7038.411089389793,7038.411089389793,7054.521621944391,7069.624017508865
221,7077.960057753162,7077.960057753162,7082.715926070809,7103.469139776558
222,7108.697824008954,7108.697824008954,7113.5286573668645,7124.675643260746
223,7136.694186414854,7136.694186414854,7148.770771370157,7163.230888278736
224,7176.6709839583555,7176.6709839583555,7189.356742339312,7209.870214379493
225,7217.623429227145,7217.623429227145,7238.970281748506,7255.659826599136
226,7233.599744588003,7238.970281748506,7255.659826599136,7271.534488426183
227,7245.606181482218,7245.606181482218,7271.534488426183,7289.367264131169
228,7255.325983388133,7264.366615221905,7289.367264131169,7306.350605658223
229,7310.685524290064,7310.685524290064,7331.849159471596,7345.039380654555
230,7345.133474409162,7345.133474409162,7349.669822789106,7363.913529050823
231,7374.414002104577,7374.414002104577,7401.168237768359,7418.653917411465
232,7418.10398163038,7418.10398163038,7419.794254989592,7434.791971708482
233,7436.92968703782,7436.92968703782,7448.7013588384725,7468.696464472462
234,7445.431603221524,7448.7013588384725,7468.696464472462,7481.385800561416
235,7481.84360109512,7481.84360109512,7485.5253503900085,7507.228453596088
236,7520.614610509938,7520.614610509938,7528.639120241573,7549.031567239845
237,7537.0055051029185,7537.0055051029185,7549.031567239845,7565.435304274692
238,7584.32902508845,7584.32902508845,7599.297827326641,7612.938771815569
239,7622.486034683144,7622.486034683144,7624.060122767501,7643.184900921679
240,7670.8352782648435,7670.8352782648435,7671.774404758843,7683.22152489318
241,7679.231350307341,7679.231350307341,7695.126396256928,7710.0145405052845
242,7727.3112720280915,7727.3112720280915,7740.290449964841,7754.667092942106
243,7751.275234264638,7751.275234264638,7754.943861458695,7775.427814330816
244,7796.192236085306,7796.192236085306,7799.610137000145,7814.403791706916
245,7832.089718008577,7832.089718008577,7844.341789411547,7862.647231162472
246,7883.539549524458,7883.539549524458,7900.856451012869,7915.772698974698
247,7937.599262570008,7937.599262570008,7978.061440587831,7999.388812904219
248,7963.270842562397,7978.061440587831,7999.388812904219,8016.727699754256
249,8008.78048468438,8008.78048468438,8020.403855164771,8032.490417302787
250,8054.0498289666375,8054.0498289666375,8066.802406254465,8085.077109187062
251,8077.396402259358,8077.396402259358,8085.077109187062,8098.470910597265
252,8104.033033061696,8104.033033061696,8113.463279087089,8132.257840257637
253,8151.868962833578,8151.868962833578,8164.779178871068,8184.990004129888
254,8190.699122530806,8190.699122530806,8202.114977343917,8216.050796702053
255,8244.48333965904,8244.48333965904,8252.524547963483,8265.359767222719
256,8299.374852452804,8299.374852452804,8306.044164644796,8318.041322199382
