# file created by code in harbour_fns_1896438.jl
# file created on 2026-03-09 at 15:39:54
# parameter: seed = 1896524
# parameter: T = 30000.0
# parameter: lower_interarrival = 7.8
# parameter: upper_interarrival = 55.8
# parameter: mean_process_times = [11.0, 16.0]
# parameter: max_queue = [9223372036854775807, 4]
# parameter: time_units = hours
id,arrival_time,start_service_times,start_service_times,completion_time
1,0.0,0.0,2.767790487270926,17.569045144221235
2,39.039186758722266,39.039186758722266,42.918826771788936,62.76228242048653
3,47.30814507373635,47.30814507373635,62.76228242048653,76.53204786228527
4,67.57964264373496,67.57964264373496,77.87150167418329,94.50640068328775
5,87.7759634061723,87.7759634061723,97.75867339706932,108.62797423339633
6,96.23359048058525,97.75867339706932,111.51300587064249,130.0268046351496
7,108.59872136723882,111.51300587064249,130.0268046351496,145.6668068806333
8,156.3175725326894,156.3175725326894,157.74963730287107,174.74195008268228
9,172.39293411356397,172.39293411356397,174.74195008268228,189.9722787642045
10,212.08350891738388,212.08350891738388,218.8610319035068,236.72150425112937
11,256.28167363951843,256.28167363951843,284.5244798940715,304.7623342470324
12,308.58928165042016,308.58928165042016,314.67536588099523,330.5881377183156
13,347.5579583015009,347.5579583015009,360.39117478423015,372.77965566452997
14,388.58329294928353,388.58329294928353,391.3864223815767,406.1854445163617
15,438.8869942303357,438.8869942303357,439.97036672283724,452.7831486957845
16,463.98003987923397,463.98003987923397,469.21594968079546,486.5636331300505
17,491.1182869303359,491.1182869303359,511.7547963639909,531.4127161199887
18,518.6214594643073,518.6214594643073,531.4127161199887,552.051677605244
19,527.217694363775,527.217694363775,552.051677605244,564.137196358191
20,548.0200261000632,548.0200261000632,564.137196358191,581.3479955803494
21,600.8927529636171,600.8927529636171,641.9791112095527,660.8922218913214
22,609.4225976354973,641.9791112095527,660.8922218913214,679.0885753413162
23,649.403431173236,649.403431173236,679.0885753413162,692.5508829255941
24,695.1001626968562,695.1001626968562,695.3041896944084,712.090852483156
25,732.6237531082812,732.6237531082812,733.9109935159756,753.1662459476082
26,774.3469027485529,774.3469027485529,789.8518643297024,806.4814195262705
27,788.979568437816,789.8518643297024,815.1332473811428,830.3881988017482
28,826.6224720496745,826.6224720496745,833.8700516580171,848.901032252269
29,873.0832476012024,873.0832476012024,882.906571529622,898.3025489222522
30,914.7851089417107,914.7851089417107,932.5401416238756,947.0710001599347
31,955.0535062043145,955.0535062043145,959.9360346480574,974.7900227227939
32,1008.8699496870788,1008.8699496870788,1016.383930232993,1032.7948930380178
33,1063.7864018537653,1063.7864018537653,1070.9559936463747,1088.0928531260806
34,1118.1499549976493,1118.1499549976493,1120.8378677168532,1142.8267748700803
35,1154.2696194421385,1154.2696194421385,1193.6917535875853,1206.111268564756
36,1194.2757713500691,1194.2757713500691,1206.111268564756,1228.6668700658556
37,1219.0621707752148,1219.0621707752148,1228.6668700658556,1244.9009967690042
38,1261.8458673818552,1261.8458673818552,1279.0459993598001,1296.1967271267981
39,1317.1848708873686,1317.1848708873686,1331.2597692671377,1346.3640012440874
40,1331.5747729945713,1331.5747729945713,1346.3640012440874,1361.543734243164
41,1363.7099300748373,1363.7099300748373,1367.3707040446066,1381.5625544712764
42,1417.5695352417501,1417.5695352417501,1417.8638391793438,1431.128594222761
43,1469.9794271090925,1469.9794271090925,1476.112900370145,1494.2462718365064
44,1498.237979802077,1498.237979802077,1505.8536884093264,1520.327258381203
45,1526.1785582119396,1526.1785582119396,1543.2321423207372,1555.1645804507937
46,1564.1888283491353,1564.1888283491353,1569.3623399826415,1588.163967725037
47,1607.7996907898812,1607.7996907898812,1612.4040300003533,1619.4445890958536
48,1621.2924444770283,1621.2924444770283,1629.5186765167928,1645.0003789090558
49,1631.6633772253256,1631.6633772253256,1645.0003789090558,1662.892302802258
50,1648.1569794436327,1648.1569794436327,1665.56513265649,1676.9902890136977
51,1666.4333987908246,1666.4333987908246,1676.9902890136977,1693.9894613485658
52,1710.8358985877192,1710.8358985877192,1717.1860647467374,1735.3875428933588
53,1727.8528480467355,1727.8528480467355,1735.3875428933588,1749.7622887788784
54,1741.6353734947215,1741.6353734947215,1749.7622887788784,1772.006998489304
55,1750.1555810930881,1750.1555810930881,1772.006998489304,1791.208135311795
56,1803.720010608811,1803.720010608811,1811.6460447109334,1827.7956147461764
57,1844.4038944761044,1844.4038944761044,1857.675160740145,1870.200472683482
58,1865.2316722750386,1865.2316722750386,1870.200472683482,1884.1626000243505
59,1884.3806702437898,1884.3806702437898,1904.5496307759759,1916.3360946477862
60,1898.343241258115,1904.5496307759759,1916.3360946477862,1935.8592105795328
61,1952.5869242389704,1952.5869242389704,1959.8428281664426,1975.1267646097
62,1967.5263574409873,1967.5263574409873,1975.1267646097,1993.5135653183934
63,2018.0571141423695,2018.0571141423695,2024.225384582615,2045.270771779649
64,2055.285848831289,2055.285848831289,2084.682866468725,2099.08123591246
65,2075.695681319224,2084.682866468725,2099.08123591246,2108.2288993040593
66,2125.687958737902,2125.687958737902,2129.55133587337,2145.23641298564
67,2168.068696070741,2168.068696070741,2191.56337801153,2211.26231399285
68,2198.483875572685,2198.483875572685,2215.634105448481,2231.8798161569384
69,2250.037671435987,2250.037671435987,2287.2533747620705,2302.396756660133
70,2288.736977210999,2288.736977210999,2302.396756660133,2315.722334398801
71,2341.8644345856055,2341.8644345856055,2371.4245054098737,2386.375741123848
72,2355.0383433254183,2371.4245054098737,2390.476095664823,2407.0580508970374
73,2405.8149429566706,2405.8149429566706,2407.298708802835,2422.5477266312487
74,2440.4947013071965,2440.4947013071965,2465.622387875009,2481.445910183935
75,2491.9158666760613,2491.9158666760613,2495.3950184450946,2517.454643887767
76,2521.9238776642196,2521.9238776642196,2523.797181502612,2541.222061164739
77,2566.371822817791,2566.371822817791,2568.7578904143907,2589.825925458664
78,2576.841262231404,2576.841262231404,2589.825925458664,2602.7613929767713
79,2629.8278635816037,2629.8278635816037,2637.0237198359528,2650.7049716980378
80,2644.891611854717,2644.891611854717,2650.7049716980378,2666.876428572272
81,2679.386983670344,2679.386983670344,2687.9398224291726,2698.3140786758886
82,2722.4287674883094,2722.4287674883094,2793.3876499090416,2807.916313122352
83,2774.624907467454,2793.3876499090416,2807.916313122352,2825.092265589058
84,2794.097587134437,2806.116759559405,2825.092265589058,2841.4405974384185
85,2820.841256228506,2820.841256228506,2841.4405974384185,2860.2141783155816
86,2848.6782971221983,2848.6782971221983,2860.2141783155816,2874.7994040427775
87,2894.2916019077657,2894.2916019077657,2907.483789736306,2924.385620652114
88,2938.3061640810424,2938.3061640810424,2951.037433796943,2960.6688605532154
89,2967.02865169396,2967.02865169396,2985.14586019301,3003.1981298283167
90,3018.039318036772,3018.039318036772,3027.5052481686976,3042.05735781882
91,3063.886553767304,3063.886553767304,3081.335980861181,3096.287371000487
92,3090.9505834786537,3090.9505834786537,3096.287371000487,3113.9771970373126
93,3103.4333858334026,3103.4333858334026,3165.134132746508,3186.1839400064964
94,3132.768779316004,3165.134132746508,3186.1839400064964,3200.381926949485
95,3165.837160441319,3165.837160441319,3200.381926949485,3218.7097551491206
96,3211.0758508934578,3211.0758508934578,3218.7097551491206,3233.9150682036525
97,3243.5799117453703,3243.5799117453703,3262.535224305499,3275.549678919116
98,3297.6351509097663,3297.6351509097663,3310.798727491772,3323.6769476396357
99,3318.799347966447,3318.799347966447,3336.049330154947,3353.8477105912475
100,3353.3964441759094,3353.3964441759094,3357.7740540184914,3377.632977083393
101,3393.8378855595843,3393.8378855595843,3402.790220454217,3420.9513031345477
102,3407.362255610809,3407.362255610809,3420.9513031345477,3441.711703498785
103,3446.2266343550455,3446.2266343550455,3459.044088058762,3474.833717911896
104,3495.613611484768,3495.613611484768,3499.91159828602,3516.9398907196514
105,3516.434234793337,3516.434234793337,3531.39934025691,3549.2561351477934
106,3548.248185413252,3548.248185413252,3549.2561351477934,3564.8233777319206
107,3559.957925264614,3559.957925264614,3583.997938015598,3602.3798695497326
108,3572.7597945506013,3583.997938015598,3602.3798695497326,3620.890502505712
109,3617.7125320764367,3617.7125320764367,3622.9403788166583,3638.881833849142
110,3671.0692627561757,3671.0692627561757,3685.6533259832418,3701.6478904282017
111,3683.556788934478,3685.6533259832418,3701.6478904282017,3717.2312900073916
112,3704.1163130550326,3704.1163130550326,3717.2312900073916,3733.0067139033954
113,3734.140741224242,3734.140741224242,3773.356124020471,3789.122417294017
114,3783.9369060085696,3783.9369060085696,3789.122417294017,3805.5747548711893
115,3797.541316514942,3797.541316514942,3805.5747548711893,3818.653462751127
116,3811.9920093542923,3811.9920093542923,3818.653462751127,3828.8059731249
117,3822.0507015367853,3822.0507015367853,3867.46843125597,3886.8675752566965
118,3857.186103939036,3867.46843125597,3933.238156618587,3945.0709195013737
119,3903.9300990504325,3933.238156618587,3945.0709195013737,3958.6123107146013
120,3923.0663310717123,3939.683838630072,3958.6123107146013,3972.919214732296
121,3938.4247678122183,3940.9911905099007,3972.919214732296,3991.4459776541753
122,3988.458932435865,3988.458932435865,4034.8286341130906,4051.4460376386014
123,4038.3992844242416,4038.3992844242416,4051.4460376386014,4067.4631551106277
124,4052.7855491973464,4052.7855491973464,4067.4631551106277,4082.0573790562485
125,4078.3516210790226,4078.3516210790226,4092.9730804652972,4102.486002223069
126,4132.004629705933,4132.004629705933,4135.463049862942,4151.7413226971585
127,4167.689426796548,4167.689426796548,4179.471888462944,4200.857709335786
128,4221.204385574441,4221.204385574441,4227.977902007213,4244.878407889627
129,4252.364770027151,4252.364770027151,4279.197165452042,4292.4957791584675
130,4266.3397928198365,4279.197165452042,4292.4957791584675,4306.5570290945325
131,4307.373788630447,4307.373788630447,4310.730417261039,4319.822520600645
132,4316.572057857653,4316.572057857653,4324.971915791128,4343.2349720964285
133,4348.434710361067,4348.434710361067,4370.823963471241,4386.7579987093095
134,4356.521549555262,4370.823963471241,4403.462034931874,4419.736724427367
135,4380.597387692925,4403.462034931874,4419.736724427367,4441.078158186258
136,4428.006257879414,4428.006257879414,4441.078158186258,4450.865598683393
137,4454.112568237129,4454.112568237129,4458.235230070501,4478.32546763952
138,4465.684270846192,4465.684270846192,4483.165466461687,4498.5423145841905
139,4493.76767812174,4493.76767812174,4510.261410954377,4525.484908977212
140,4521.705013213389,4521.705013213389,4525.484908977212,4539.387559107606
141,4530.548542954089,4530.548542954089,4541.37847099765,4558.02290528033
142,4567.597423817008,4567.597423817008,4572.818812029549,4590.906772813465
143,4575.584020920065,4575.584020920065,4590.906772813465,4607.895022909355
144,4608.011376735676,4608.011376735676,4610.392922069661,4622.23670466851
145,4646.014143132516,4646.014143132516,4650.645610451386,4664.448788601593
146,4678.263297273867,4678.263297273867,4712.111858352708,4729.093727927126
147,4722.73412699212,4722.73412699212,4729.093727927126,4747.222110067716
148,4759.876460927517,4759.876460927517,4766.357395450946,4785.352092979153
149,4786.417527939535,4786.417527939535,4807.252706777361,4826.065750120076
150,4831.002157919408,4831.002157919408,4858.605400812236,4879.348474204574
151,4881.939398935227,4881.939398935227,4893.206531269708,4908.623056989232
152,4903.304270356493,4903.304270356493,4908.623056989232,4924.176082765601
153,4935.127086059562,4935.127086059562,4951.571018190161,4967.841010232063
154,4969.582988780131,4969.582988780131,4969.972158517497,4987.067330282453
155,4986.180506108789,4986.180506108789,4997.148558331039,5007.534485704717
156,4995.194076743155,4997.148558331039,5007.534485704717,5018.035584654654
157,5043.96640056197,5043.96640056197,5044.107932650034,5055.180477999334
158,5094.797242493597,5094.797242493597,5098.037549384448,5108.979172639377
159,5114.316978481691,5114.316978481691,5135.933192062199,5155.223907007321
160,5139.079803518816,5139.079803518816,5155.223907007321,5170.0737501047015
161,5164.370819266434,5164.370819266434,5170.0737501047015,5188.663971368326
162,5217.605254540524,5217.605254540524,5228.678457541744,5240.453779901107
163,5258.150401422891,5258.150401422891,5261.283964891542,5280.8520228192065
164,5271.244480861166,5271.244480861166,5280.8520228192065,5298.455223188251
165,5280.021821906469,5280.021821906469,5298.455223188251,5313.01602300294
166,5324.397319519483,5324.397319519483,5324.707886325118,5343.632493675622
167,5342.793575792882,5342.793575792882,5346.060470754728,5360.039099339559
168,5359.3427882535625,5359.3427882535625,5371.1507807868575,5384.7285288827925
169,5367.304439702128,5371.1507807868575,5384.7285288827925,5404.55881308293
170,5392.415775990372,5392.415775990372,5430.257811291725,5447.135194725811
171,5445.662289391565,5445.662289391565,5448.974845289885,5465.080275226704
172,5480.816830308281,5480.816830308281,5482.372861990343,5501.8770341816835
173,5535.090489596551,5535.090489596551,5561.647642228075,5572.310422140905
174,5560.114321003599,5561.647642228075,5592.102246265916,5605.096139216421
175,5576.448728036165,5592.102246265916,5605.096139216421,5624.280093612626
176,5619.64692999561,5619.64692999561,5626.640616127085,5642.624834713465
177,5631.031650111973,5631.031650111973,5642.624834713465,5654.982902163254
178,5673.60274737324,5673.60274737324,5675.988173481279,5695.426978891896
179,5691.524331212768,5691.524331212768,5701.527683489336,5721.17431013372
180,5713.270821700133,5713.270821700133,5723.247738219152,5743.228204530184
181,5757.88217158571,5757.88217158571,5769.007466932063,5782.677932382315
182,5803.173212886106,5803.173212886106,5828.51846806488,5842.024071480662
183,5823.034401432488,5828.51846806488,5843.504146422576,5864.382276593713
184,5848.921334223023,5848.921334223023,5864.382276593713,5880.927998244868
185,5858.897086293699,5858.897086293699,5880.927998244868,5895.444795155699
186,5911.408868080552,5911.408868080552,5917.634190784198,5934.712492592253
187,5956.057222753365,5956.057222753365,5960.113566086068,5969.644073363381
188,5984.899610472838,5984.899610472838,6000.312472906006,6020.632116654172
189,6002.341528758124,6002.341528758124,6020.632116654172,6033.679038253842
190,6029.007003510686,6029.007003510686,6033.821790060012,6046.637925769639
191,6069.183524977573,6069.183524977573,6075.866667715247,6094.514257859552
192,6099.413850261762,6099.413850261762,6101.197982789328,6119.699876784935
193,6116.918328001076,6116.918328001076,6126.0231568220315,6138.132807883037
194,6137.963897020894,6137.963897020894,6149.814169229614,6165.910409753371
195,6164.436724266136,6164.436724266136,6195.72128757275,6213.808213039547
196,6217.645011301617,6217.645011301617,6220.907307490131,6231.790559783035
197,6264.1057783828,6264.1057783828,6272.354090852941,6291.452051468489
198,6281.273739360269,6281.273739360269,6291.452051468489,6304.853162494829
199,6299.960276117817,6299.960276117817,6307.134933800299,6325.435739786771
200,6345.917775115908,6345.917775115908,6363.831893795461,6379.357823108789
201,6355.022102556296,6363.831893795461,6379.357823108789,6394.828030448241
202,6370.145929390694,6370.145929390694,6394.828030448241,6411.623321296162
203,6412.041806105102,6412.041806105102,6421.408006172585,6436.410191597414
204,6429.252571236156,6429.252571236156,6436.410191597414,6456.861592316244
205,6458.494732346573,6458.494732346573,6472.669064598983,6492.00322945631
206,6493.427254815304,6493.427254815304,6496.492183938472,6515.287655488211
207,6543.855189984076,6543.855189984076,6544.960140681826,6561.312409262424
208,6582.295960230624,6582.295960230624,6583.458276052482,6598.58804098262
209,6624.277792319882,6624.277792319882,6633.82310849484,6648.485323035086
210,6635.781203849143,6635.781203849143,6675.44005838596,6691.058145209067
211,6690.920692571316,6690.920692571316,6703.4202654588225,6717.08052557677
212,6716.389379470015,6716.389379470015,6762.380953536719,6775.1564461354465
213,6728.495337376517,6762.380953536719,6775.1564461354465,6786.510119406028
214,6742.191009453705,6762.557445789166,6786.510119406028,6799.749283059461
215,6766.261594774619,6766.261594774619,6799.749283059461,6811.754127144491
216,6819.467284077398,6819.467284077398,6819.494345585301,6834.95853377713
217,6872.224435185353,6872.224435185353,6874.039372591595,6885.821280230799
218,6915.978474403964,6915.978474403964,6922.073829788893,6936.78590112761
219,6943.569423346799,6943.569423346799,6944.706285907368,6962.722245836393
220,6962.938263371845,6962.938263371845,6965.734339597385,6981.125139535442
221,6998.833173355917,6998.833173355917,6999.909707595004,7012.732633834974
222,7012.465464762244,7012.465464762244,7013.3957409344075,7029.34569098551
223,7024.762499376748,7024.762499376748,7029.34569098551,7046.093210721009
224,7067.162070045509,7067.162070045509,7071.395314683699,7086.339991556717
225,7082.19182453054,7082.19182453054,7089.517321837341,7105.953893931619
226,7102.343965534105,7102.343965534105,7105.953893931619,7116.071058577306
227,7147.50255505433,7147.50255505433,7164.946586111123,7183.693848509922
228,7181.704902504302,7181.704902504302,7193.394326285122,7207.4927885794705
229,7219.643262963403,7219.643262963403,7288.33746205538,7302.617153425583
230,7240.752405219449,7288.33746205538,7302.617153425583,7317.6738360753825
231,7275.964645151661,7296.5671829488965,7317.6738360753825,7330.454939046593
232,7307.343082193756,7307.343082193756,7330.454939046593,7351.924483422486
233,7316.657960722136,7316.657960722136,7358.0588254509785,7372.401459845532
234,7360.586746633654,7360.586746633654,7372.401459845532,7386.579195351965
235,7381.004126546299,7381.004126546299,7399.714180493257,7410.119053505533
236,7418.615608428686,7418.615608428686,7428.0697207355215,7441.5522783181705
237,7457.504079577275,7457.504079577275,7467.606883644417,7481.984519442458
238,7466.047352287458,7467.606883644417,7504.103923408513,7517.908816696785
239,7496.6702807133,7504.103923408513,7517.908816696785,7533.380431006654
240,7516.522390836662,7516.522390836662,7533.380431006654,7556.014662885425
241,7548.233733183871,7548.233733183871,7556.014662885425,7574.251301309747
242,7578.660649817251,7578.660649817251,7584.254456525788,7599.893934259997
243,7625.678903461444,7625.678903461444,7627.771544088874,7640.498203438389
244,7657.57307750361,7657.57307750361,7678.357577347958,7693.660710786032
245,7706.704309981497,7706.704309981497,7735.5982156729015,7749.842334363739
246,7738.403031436053,7738.403031436053,7753.142095985834,7776.148753752616
247,7770.970029050306,7770.970029050306,7776.148753752616,7786.93717520183
248,7784.937032828613,7784.937032828613,7816.065686717456,7834.428563885062
249,7825.598970528818,7825.598970528818,7849.884346389653,7865.867159562282
250,7852.37863320839,7852.37863320839,7889.536911435386,7900.552012502288
251,7893.491393154315,7893.491393154315,7903.477263707583,7917.4905098676045
252,7911.698059419662,7911.698059419662,7917.4905098676045,7931.957327774288
253,7920.380209438787,7920.380209438787,7967.174929655074,7981.437850449056
254,7952.68139034496,7967.174929655074,7982.137007498499,7994.642038880588
255,7973.9628504956345,7982.137007498499,8007.978324732312,8029.279305325722
256,8020.6617632076795,8020.6617632076795,8029.279305325722,8047.332698644576
