# file created by code in harbour_fns_1896438.jl
# file created on 2026-03-09 at 15:39:56
# parameter: seed = 1896557
# parameter: T = 30000.0
# parameter: lower_interarrival = 7.8
# parameter: upper_interarrival = 55.8
# parameter: mean_process_times = [11.0, 16.0]
# parameter: max_queue = [9223372036854775807, 4]
# parameter: time_units = hours
id,arrival_time,start_service_times,start_service_times,completion_time
1,0.0,0.0,5.239474462827964,17.449166422709844
2,33.00472893503638,33.00472893503638,67.32362196650956,81.58341096409791
3,78.03310874743919,78.03310874743919,81.58341096409791,100.98888010035613
4,115.97082236654225,115.97082236654225,123.33041461159449,141.1945411445609
5,165.59333249726097,165.59333249726097,204.72873073947218,219.02599529650064
6,179.6852225098503,204.72873073947218,231.65723034479277,246.66562703046836
7,202.09202206427972,231.65723034479277,273.19994830400293,287.75960212438383
8,226.45826283266499,273.19994830400293,287.75960212438383,302.0218090181455
9,264.4753994400814,275.0893570882845,302.0218090181455,320.5313099537844
10,302.85774681888904,302.85774681888904,320.5313099537844,334.84707630452795
11,325.4035601685187,325.4035601685187,334.84707630452795,350.46133765759305
12,372.3100572267617,372.3100572267617,380.0830343429651,395.1112081190698
13,395.45857683074365,395.45857683074365,404.7387985980364,415.90546974198026
14,414.7537175266444,414.7537175266444,420.8691467836079,434.04349027348366
15,438.2041173910853,438.2041173910853,473.62686884705386,490.8338520669083
16,458.31372424539353,473.62686884705386,490.8338520669083,509.3675448450445
17,492.7238478811601,492.7238478811601,509.3675448450445,523.3836338157436
18,545.6209180081206,545.6209180081206,560.8555825351874,573.1724751221163
19,593.8427079960691,593.8427079960691,603.8835640384037,621.9831206147609
20,646.6038428361122,646.6038428361122,658.3938277769956,674.6022493435081
21,697.872380246794,697.872380246794,720.3304743672599,744.4530574042296
22,722.1699135045096,722.1699135045096,744.4530574042296,757.5179835170258
23,751.9912695177063,751.9912695177063,757.5179835170258,779.8435502376427
24,770.2060479171462,770.2060479171462,779.8435502376427,793.4830407911428
25,796.6358299369214,796.6358299369214,802.4061100450658,819.2681403956957
26,833.0912298926635,833.0912298926635,852.1984113889316,866.7591550895776
27,876.675684162219,876.675684162219,890.2302284226477,908.9138288711948
28,896.245132258907,896.245132258907,920.6658988408651,938.7144910441698
29,925.9998732721505,925.9998732721505,938.7144910441698,955.9441853682346
30,937.4087313978347,937.4087313978347,955.9441853682346,970.0643223202951
31,977.7276160150917,977.7276160150917,982.391954693371,992.5210874824644
32,1013.0941719446798,1013.0941719446798,1032.219633453789,1045.0210567931395
33,1026.3816304965833,1032.219633453789,1052.6614774047714,1065.6947075744117
34,1051.2492279518865,1052.6614774047714,1066.283775424731,1083.7227258640482
35,1100.043360082361,1100.043360082361,1142.281694936415,1160.140555381312
36,1138.6013801346953,1142.281694936415,1167.3331057634027,1179.3517503642515
37,1183.7481388752892,1183.7481388752892,1196.6422320183635,1214.264592929723
38,1193.1401258848675,1196.6422320183635,1214.264592929723,1227.5058847004243
39,1206.3620902080538,1206.3620902080538,1227.5058847004243,1240.5480600603846
40,1251.29202849301,1251.29202849301,1251.7761156101544,1268.0964581948451
41,1294.6123078048706,1294.6123078048706,1307.0382546277272,1325.5014575410255
42,1327.0245732046128,1327.0245732046128,1368.9587058940756,1384.9620033897475
43,1343.2429060525549,1368.9587058940756,1384.9620033897475,1404.8111150526424
44,1369.6483756867185,1373.8064458380313,1404.8111150526424,1420.3381444173785
45,1402.7471227100366,1402.7471227100366,1420.3381444173785,1435.6222653532152
46,1454.5850737291576,1454.5850737291576,1482.805248258689,1497.0873901174818
47,1477.7483950066019,1482.805248258689,1497.0873901174818,1513.652691495809
48,1508.082781324029,1508.082781324029,1513.652691495809,1529.1582947784643
49,1534.4454766446509,1534.4454766446509,1538.3546549194753,1551.5440553467029
50,1566.8644485443983,1566.8644485443983,1571.2287302183572,1588.1075448244774
51,1620.162721342872,1620.162721342872,1656.2887416788042,1678.2396705661886
52,1653.1611178886305,1656.2887416788042,1678.2396705661886,1699.6415392871436
53,1686.1245710939802,1686.1245710939802,1699.6415392871436,1716.7753833699753
54,1695.8879134006572,1695.8879134006572,1716.7753833699753,1735.10505547957
55,1733.6085284558906,1733.6085284558906,1743.6329052932226,1758.0405504186792
56,1754.3971728112533,1754.3971728112533,1758.5215933639217,1778.0019627434501
57,1770.0010066153798,1770.0010066153798,1778.0019627434501,1791.2820051790209
58,1824.9820015378125,1824.9820015378125,1835.2208633491132,1848.8787316170792
59,1835.1318275018966,1835.2208633491132,1848.8787316170792,1866.8211567630462
60,1886.6171535892315,1886.6171535892315,1895.509208635372,1912.454286719801
61,1913.0194354395128,1913.0194354395128,1924.3837966357887,1942.8998672584323
62,1959.8124308612855,1959.8124308612855,1993.4777978458167,2013.6700605745593
63,2010.2294933382045,2010.2294933382045,2013.6700605745593,2030.9442114678204
64,2039.5552698473987,2039.5552698473987,2069.6611933476106,2082.3654978939585
65,2078.410379218746,2078.410379218746,2087.0449936095424,2104.822408088967
66,2108.369236739687,2108.369236739687,2113.849302294889,2130.6543023820996
67,2156.2037381027285,2156.2037381027285,2176.971742374849,2193.4406411903415
68,2165.9433973946466,2176.971742374849,2193.4406411903415,2209.740519399512
69,2219.5239039466355,2219.5239039466355,2234.301461607371,2250.2132655433925
70,2236.78075656868,2236.78075656868,2278.1441103119055,2296.8860677086827
71,2277.0420943802997,2278.1441103119055,2296.8860677086827,2313.2346579506057
72,2311.908000061845,2311.908000061845,2329.8315813830727,2340.287775736264
73,2341.3468960292576,2341.3468960292576,2341.6934539220747,2356.0701918712766
74,2394.321213206746,2394.321213206746,2397.023038925479,2413.0872953321696
75,2403.9799439213034,2403.9799439213034,2413.8289636508357,2429.8004946288042
76,2456.782706500787,2456.782706500787,2494.26705362678,2506.0525354326624
77,2495.1269273851435,2495.1269273851435,2516.8638268301843,2531.4208536722554
78,2539.706711321857,2539.706711321857,2546.3426340785068,2563.4820421239865
79,2567.138231869169,2567.138231869169,2575.566237877129,2597.580328191503
80,2615.907377411705,2615.907377411705,2617.029947390201,2630.8793577331344
81,2645.125610412236,2645.125610412236,2653.924949244757,2666.2013179792925
82,2676.7594419358156,2676.7594419358156,2683.743246804149,2703.973983733225
83,2720.5933894268687,2720.5933894268687,2722.9864591539103,2740.5444939406607
84,2731.0573026421343,2731.0573026421343,2740.5444939406607,2753.8241865403643
85,2760.226257674658,2760.226257674658,2760.2352260341504,2776.549005979769
86,2813.235596717118,2813.235596717118,2823.8970429857372,2837.9026398536203
87,2834.156656208231,2834.156656208231,2837.9026398536203,2853.308739623779
88,2882.5553827203034,2882.5553827203034,2912.805062692798,2928.8270079236295
89,2935.1354447764147,2935.1354447764147,2937.955848620982,2957.0206881547647
90,2954.48502683162,2954.48502683162,2957.0206881547647,2971.8966763718304
91,2977.364582238897,2977.364582238897,2982.6481609173393,2996.872367213404
92,2994.591731758602,2994.591731758602,3009.295874505115,3025.770983790447
93,3027.0017552176337,3027.0017552176337,3030.971256133722,3042.917779752036
94,3081.7049467803668,3081.7049467803668,3084.8844339584816,3099.329032014443
95,3092.7312863424863,3092.7312863424863,3112.8747780750964,3130.1815383562516
96,3111.3366947210793,3112.8747780750964,3130.1815383562516,3144.9508396461256
97,3165.0795956259617,3165.0795956259617,3171.5262654989237,3193.9388997306205
98,3197.462056801207,3197.462056801207,3214.504911032773,3233.4103900933114
99,3235.943561180153,3235.943561180153,3265.63210421499,3282.3094612350455
100,3257.149700757747,3265.63210421499,3282.3094612350455,3302.924916077364
101,3311.0645077158465,3311.0645077158465,3314.0050198003078,3334.0711176536724
102,3320.115251625044,3320.115251625044,3334.0711176536724,3344.774100409167
103,3333.3703780699834,3333.3703780699834,3357.3928573294415,3370.2582925546417
104,3378.120750524175,3378.120750524175,3393.2667850964613,3404.116104583642
105,3404.0276858179705,3404.0276858179705,3404.5710558874894,3422.602347704624
106,3456.3388041234807,3456.3388041234807,3481.081106294111,3496.2179958508623
107,3493.185350370674,3493.185350370674,3497.6758504735276,3516.4667275809747
108,3525.0197107318295,3525.0197107318295,3537.312158517669,3560.1239252921264
109,3570.243902482161,3570.243902482161,3571.9081013426803,3579.714877732097
110,3598.929381683803,3598.929381683803,3604.236432760405,3618.5232828609055
111,3612.06094112331,3612.06094112331,3618.5232828609055,3635.483455922971
112,3639.5925037031016,3639.5925037031016,3650.443704993395,3662.320109665713
113,3687.0310167659536,3687.0310167659536,3691.9710195356042,3706.6652329562053
114,3741.823220024579,3741.823220024579,3743.559392620425,3762.1194032025664
115,3780.276632797383,3780.276632797383,3792.36688246618,3809.5868687089196
116,3805.3878849621856,3805.3878849621856,3820.081879196087,3839.39720613517
117,3848.4045240087294,3848.4045240087294,3860.714542693306,3877.8709051803526
118,3881.3659890825406,3881.3659890825406,3888.922756435441,3900.5015069991305
119,3928.8425168627596,3928.8425168627596,3933.350769456175,3950.7995445461993
120,3957.0204777108697,3957.0204777108697,3970.747597818909,3989.7667016021032
121,3978.8669800691036,3978.8669800691036,3992.5850245556744,4005.557751685995
122,4032.4446163935672,4032.4446163935672,4068.0841565215337,4085.7376515297533
123,4050.3769807300637,4068.0841565215337,4085.7376515297533,4099.95212256254
124,4089.156693838426,4089.156693838426,4099.95212256254,4115.840517385139
125,4134.262134384438,4134.262134384438,4135.020547852435,4149.81161926066
126,4149.543340984176,4149.543340984176,4180.894874368839,4193.903809379164
127,4202.064138708357,4202.064138708357,4222.217728998595,4247.412890247369
128,4251.896443561632,4251.896443561632,4255.216512006302,4270.407370706572
129,4292.019889844726,4292.019889844726,4307.6952448218635,4320.744985502598
130,4333.423719779602,4333.423719779602,4354.120031935054,4376.314833381346
131,4381.79858266232,4381.79858266232,4385.111506103729,4400.375169529087
132,4402.729376390311,4402.729376390311,4403.460781977864,4418.904967085448
133,4445.317460352122,4445.317460352122,4448.365495491058,4463.789845953921
134,4480.435498694202,4480.435498694202,4480.937384339333,4497.3819358428655
135,4510.003216428735,4510.003216428735,4522.750972488252,4540.015263145892
136,4523.166786943521,4523.166786943521,4540.015263145892,4556.009417388488
137,4573.238685787282,4573.238685787282,4581.179590249975,4593.628832197695
138,4628.089036845908,4628.089036845908,4647.533819219941,4666.624019532746
139,4674.771720516091,4674.771720516091,4679.891439043154,4693.816965885339
140,4685.138973863457,4685.138973863457,4693.816965885339,4706.154064935397
141,4713.677291873056,4713.677291873056,4728.159929567293,4745.880161855411
142,4734.787840668012,4734.787840668012,4748.148203655206,4766.0643371197975
143,4773.368504010983,4773.368504010983,4806.124200877266,4823.905618173093
144,4796.94872112243,4806.124200877266,4823.905618173093,4842.94060023259
145,4817.878638186321,4817.878638186321,4842.94060023259,4861.614549007813
146,4860.0049728376825,4860.0049728376825,4861.614549007813,4875.624658228501
147,4882.223922411324,4882.223922411324,4893.012113848321,4918.430287896183
148,4903.920471944659,4903.920471944659,4918.430287896183,4935.761592177758
149,4940.746118137669,4940.746118137669,4946.339285474788,4959.745645746283
150,4974.199438984662,4974.199438984662,5025.255341937598,5043.254647482298
151,5018.938000653465,5025.255341937598,5049.662732560674,5063.648937605732
152,5056.175703707396,5056.175703707396,5063.6633656823615,5075.005042005822
153,5100.764869351107,5100.764869351107,5112.038866495949,5118.235441035071
154,5139.2282721336915,5139.2282721336915,5145.917377345461,5161.826244549085
155,5163.104831472369,5163.104831472369,5180.244140717087,5197.720570639857
156,5194.457883440621,5194.457883440621,5218.504134698349,5235.144971346089
157,5203.887668265065,5218.504134698349,5235.144971346089,5250.963837819354
158,5224.064146654027,5225.755079037501,5250.963837819354,5269.627096701607
159,5279.68563419711,5279.68563419711,5286.34138315096,5305.888252746423
160,5292.179875336816,5292.179875336816,5350.302601292054,5365.199459073255
161,5339.970588477792,5350.302601292054,5389.4051944684325,5409.972521665646
162,5368.217099474801,5389.4051944684325,5431.79323192515,5445.955314415044
163,5391.099162004846,5431.79323192515,5445.955314415044,5461.971374652146
164,5416.868378314648,5433.036375824108,5461.971374652146,5483.705357067317
165,5438.4157677827425,5440.403904037622,5483.705357067317,5498.282695776677
166,5468.734448318503,5468.734448318503,5498.282695776677,5510.338820702277
167,5515.294885892354,5515.294885892354,5518.824662766382,5533.860762944942
168,5537.434611059091,5537.434611059091,5539.036491856758,5554.298662888407
169,5584.88680922495,5584.88680922495,5595.502149492462,5614.390595457758
170,5621.831104291957,5621.831104291957,5630.186933665516,5644.839223406935
171,5656.550109383898,5656.550109383898,5660.4160012061575,5676.314255540266
172,5695.123994220995,5695.123994220995,5697.8351452191855,5709.873872236002
173,5708.737824164322,5708.737824164322,5740.328462243181,5761.854978583894
174,5736.162031914784,5740.328462243181,5761.854978583894,5775.363392915814
175,5744.153672272592,5744.153672272592,5775.363392915814,5792.131545715069
176,5793.009708372337,5793.009708372337,5811.935177889575,5828.67818304279
177,5830.85267849584,5830.85267849584,5845.167496091584,5860.231574119927
178,5854.8836390109,5854.8836390109,5860.231574119927,5882.429803591164
179,5888.994740456616,5888.994740456616,5892.111018743509,5911.393738429903
180,5902.951078052666,5902.951078052666,5912.70694954828,5929.199130259755
181,5942.33325582253,5942.33325582253,5952.330535904947,5961.680083551804
182,5974.610563939528,5974.610563939528,5976.738594255722,5988.202954107274
183,6021.640979646389,6021.640979646389,6021.880926571851,6036.20649949594
184,6042.795852750261,6042.795852750261,6048.286260192688,6063.32004100968
185,6088.143555862879,6088.143555862879,6091.4343700414365,6103.259240916638
186,6099.866931008425,6099.866931008425,6140.648524469639,6156.793731524712
187,6146.812234587128,6146.812234587128,6156.793731524712,6172.830564373702
188,6198.6541935584355,6198.6541935584355,6202.851426363973,6214.942642544245
189,6215.607551108236,6215.607551108236,6223.66874251176,6241.524198124821
190,6252.001239494144,6252.001239494144,6274.686285952954,6295.422268004391
191,6281.55216940014,6281.55216940014,6312.028414823837,6327.603196113691
192,6306.002713665894,6312.028414823837,6330.769574645889,6345.3683858705845
193,6321.706979413669,6330.769574645889,6345.3683858705845,6356.714519227597
194,6330.703372099383,6332.2142627067815,6356.714519227597,6373.091892858151
195,6371.097114482296,6371.097114482296,6374.612820919147,6391.1818378839225
196,6411.332285352814,6411.332285352814,6426.160822220166,6440.557019986586
197,6454.186743788052,6454.186743788052,6455.712494898677,6472.746409920909
198,6466.488454710254,6466.488454710254,6550.942275129878,6567.130019560905
199,6519.834298317006,6550.942275129878,6567.130019560905,6581.019762425714
200,6545.894453108865,6551.406939799983,6581.019762425714,6589.045636450245
201,6554.021538444676,6580.373131145762,6597.856293577879,6612.211429799679
202,6608.870098164101,6608.870098164101,6648.530705395181,6662.000676307557
203,6644.516006140396,6648.530705395181,6662.000676307557,6671.7765308616135
204,6682.248909121613,6682.248909121613,6695.825869516698,6711.679641830427
205,6710.365570082872,6710.365570082872,6727.276541441573,6744.548203069852
206,6728.334081040172,6728.334081040172,6744.548203069852,6761.804110734197
207,6782.171906774194,6782.171906774194,6802.3004810618895,6818.450749330434
208,6798.873212706612,6802.3004810618895,6818.450749330434,6829.419007997273
209,6854.397106923042,6854.397106923042,6871.052354120754,6890.811333498923
210,6906.088170605783,6906.088170605783,6912.098351124052,6926.873362366075
211,6953.5163510268185,6953.5163510268185,6963.316167625955,6976.8340158438405
212,6964.694585086002,6964.694585086002,6991.672050386984,7009.0665423339315
213,7013.069048267011,7013.069048267011,7027.54219478387,7040.118254870042
214,7052.633729975858,7052.633729975858,7098.622667324222,7115.781845388248
215,7066.183900464109,7098.622667324222,7115.781845388248,7129.449291409787
216,7078.557755210003,7100.869503281744,7129.449291409787,7150.069540924848
217,7116.333374367437,7116.333374367437,7150.069540924848,7171.328494550015
218,7126.904272659863,7137.745273923638,7171.328494550015,7190.414048408414
219,7180.92732735216,7180.92732735216,7190.414048408414,7205.245589610357
220,7219.86431653089,7219.86431653089,7226.0027075547705,7247.325993458962
221,7263.452657773879,7263.452657773879,7272.175130232166,7293.697886831037
222,7277.640922329447,7277.640922329447,7293.697886831037,7308.0494268079565
223,7290.735767721033,7290.735767721033,7313.601630141674,7334.3400459526265
224,7322.128249723947,7322.128249723947,7335.415549354059,7356.247015528588
225,7334.7354616785615,7335.415549354059,7356.247015528588,7373.994535676988
226,7363.296578622924,7363.296578622924,7377.759130086963,7395.211902568844
227,7374.950159033497,7377.759130086963,7398.783318568402,7412.161843296015
228,7388.003218146091,7398.783318568402,7412.696995794954,7426.852198656632
229,7430.4114775072185,7430.4114775072185,7443.6127864302,7458.434865246506
230,7476.760086589997,7476.760086589997,7482.712594827408,7499.357868399095
231,7512.609534706418,7512.609534706418,7523.888335297937,7536.784176050242
232,7554.763413926256,7554.763413926256,7562.953087279594,7577.126441816642
233,7587.896126408868,7587.896126408868,7590.895429220867,7606.574627491666
234,7637.1711634497215,7637.1711634497215,7648.358436758026,7659.637382915791
235,7672.591309556099,7672.591309556099,7697.368254673886,7714.7983810122405
236,7717.804518034912,7717.804518034912,7733.345700268317,7746.6642583312605
237,7757.188990342101,7757.188990342101,7765.571655633512,7780.878397460767
238,7804.543647885617,7804.543647885617,7810.812793096127,7825.13895233852
239,7823.223648315626,7823.223648315626,7828.199407812102,7845.363146482594
240,7856.821053744896,7856.821053744896,7869.129897986552,7887.826931471596
241,7877.670212450538,7877.670212450538,7887.826931471596,7906.020387037534
242,7910.2377150135435,7910.2377150135435,7917.316944828143,7930.960239395284
243,7927.164697857932,7927.164697857932,7936.107665160019,7954.012221586714
244,7938.064131818797,7938.064131818797,7954.012221586714,7971.796597156187
245,7983.737098440529,7983.737098440529,7985.939269827441,7999.2564371303215
246,7997.642339098362,7997.642339098362,8001.196031802481,8021.290900903963
247,8026.5843949696055,8026.5843949696055,8031.932942346747,8049.48573232406
248,8043.840274614213,8043.840274614213,8059.488762132658,8075.350114926373
249,8088.663629217748,8088.663629217748,8101.249911057001,8116.049754524985
250,8114.353117736498,8114.353117736498,8171.892963244912,8187.925465448193
251,8140.118583729612,8171.892963244912,8187.925465448193,8207.73740017807
252,8153.982573744585,8179.720859516729,8207.73740017807,8223.70211849313
253,8207.753581027862,8207.753581027862,8223.70211849313,8234.620454547787
254,8216.929660775602,8222.548851486228,8246.373795762647,8256.662661939756
255,8236.26853179358,8246.373795762647,8291.312432021768,8306.513581304114
256,8291.203794750432,8291.312432021768,8324.864382765367,8341.133357167268
