# file created by code in harbour_fns_1896438.jl
# file created on 2026-03-09 at 15:39:58
# parameter: seed = 1896590
# parameter: T = 30000.0
# parameter: lower_interarrival = 7.8
# parameter: upper_interarrival = 55.8
# parameter: mean_process_times = [11.0, 16.0]
# parameter: max_queue = [9223372036854775807, 4]
# parameter: time_units = hours
id,arrival_time,start_service_times,start_service_times,completion_time
1,0.0,0.0,6.085700113378711,20.813338810888272
2,26.970271111350502,26.970271111350502,31.837456213701525,51.495065006237866
3,60.75807242114203,60.75807242114203,62.787103192505434,78.98926850945443
4,116.36200208934955,116.36200208934955,120.06921727022389,138.83818427459533
5,147.41070158834964,147.41070158834964,152.70639742154955,170.59364543243726
6,167.13685453911532,167.13685453911532,187.27215645383478,204.51457878719216
7,180.09356128912538,187.27215645383478,211.32326869461684,228.09075479232337
8,209.06931614560497,211.32326869461684,228.09075479232337,244.33774150466965
9,239.55615281832914,239.55615281832914,251.83876137134635,269.8194612469988
10,287.3907114082467,287.3907114082467,287.58585019959645,302.1100464858318
11,336.2841733853715,336.2841733853715,343.91326918681614,357.13413131467956
12,377.78955949095575,377.78955949095575,383.8195020325653,397.70977788911387
13,433.1179220478389,433.1179220478389,440.2023596434088,453.32655180681496
14,456.1263102142977,456.1263102142977,459.5145032623724,472.68589196393543
15,497.841485316608,497.841485316608,499.11659368064966,517.8047516670349
16,516.2105650405899,516.2105650405899,536.6042255134345,556.6276025404295
17,545.9250868279324,545.9250868279324,556.6276025404295,575.9931737644125
18,575.3947418637682,575.3947418637682,592.3355938841045,602.7303729005106
19,624.3506777550544,624.3506777550544,635.8420517273713,652.3254873940494
20,661.0706156988525,661.0706156988525,674.363431558509,692.8742315607609
21,710.7349636566622,710.7349636566622,713.4760235530175,731.8162270323398
22,741.9665932539813,741.9665932539813,744.0413261387862,762.2150643938534
23,761.6284717426361,761.6284717426361,785.7869926028824,801.0791662362342
24,800.3612970178955,800.3612970178955,804.0161037032777,819.4375975025162
25,821.8754942387951,821.8754942387951,830.4918755576572,849.8330786325052
26,830.0028870701545,830.4918755576572,849.8330786325052,866.0546817414574
27,879.3751648539732,879.3751648539732,896.2633646013052,911.2188502222618
28,928.8711574354908,928.8711574354908,933.1023100619263,947.1859959648459
29,975.7005257703173,975.7005257703173,982.2333248769222,994.7319215952117
30,1027.3817695696857,1027.3817695696857,1073.9621846616808,1087.8879199773885
31,1070.1722336539917,1073.9621846616808,1090.154581247731,1103.7838496500046
32,1110.3469263080967,1110.3469263080967,1114.2129224287116,1127.1025042975132
33,1151.4125403264873,1151.4125403264873,1155.14557450643,1166.7216204082113
34,1159.7592383899553,1159.7592383899553,1166.7216204082113,1186.3463966938325
35,1210.06391531505,1210.06391531505,1223.2036234092568,1243.8218785897282
36,1238.1537006920116,1238.1537006920116,1243.8218785897282,1265.4122874783386
37,1281.502719450009,1281.502719450009,1291.7878807629374,1310.9867678412509
38,1299.34094683752,1299.34094683752,1310.9867678412509,1329.8423768712967
39,1348.4448452175322,1348.4448452175322,1355.1536879253943,1373.558646155114
40,1364.6670584309907,1364.6670584309907,1381.512605635408,1402.7944212261953
41,1405.30054346913,1405.30054346913,1408.4730403489507,1428.0743065751906
42,1452.9579191303633,1452.9579191303633,1455.1912537365047,1475.2609610202398
43,1494.4098648822032,1494.4098648822032,1496.622834387369,1508.4122106989043
44,1533.5510101184964,1533.5510101184964,1533.6549426387696,1547.8425948546142
45,1549.7417719004086,1549.7417719004086,1556.2969167750568,1574.129652904424
46,1601.2178016225755,1601.2178016225755,1631.154147769478,1647.167733191675
47,1613.8317074404843,1631.154147769478,1647.167733191675,1670.854016649456
48,1630.8896176345922,1631.845068668834,1670.854016649456,1685.9308531138142
49,1679.0589371669246,1679.0589371669246,1685.9308531138142,1703.3505666437181
50,1728.681355008107,1728.681355008107,1741.27505382674,1761.2552143384885
51,1758.6672618187329,1758.6672618187329,1765.6191291998862,1782.6580270880606
52,1784.470579674331,1784.470579674331,1854.2704354662783,1869.7304520023126
53,1813.4460875713764,1854.2704354662783,1869.7304520023126,1889.0138968578897
54,1852.1108756523902,1861.887104606052,1889.0138968578897,1902.8826470263866
55,1880.7462346473544,1880.7462346473544,1911.9314614331997,1922.9306261636789
56,1911.3127356280113,1911.9314614331997,1922.9306261636789,1936.2782545779496
57,1945.4556372132213,1945.4556372132213,1955.101266935907,1967.643838841794
58,1992.4896761234227,1992.4896761234227,1999.3230363009018,2013.2018781192137
59,2015.4604819651308,2015.4604819651308,2044.1007634783216,2068.702887361622
60,2068.4208897282997,2068.4208897282997,2068.9821929354516,2079.7960524675236
61,2114.9817704480065,2114.9817704480065,2128.0399854520188,2147.0324253308777
62,2168.217752580622,2168.217752580622,2178.8242541729333,2193.834462280884
63,2193.0575459070205,2193.0575459070205,2221.3780224172892,2233.9003327093637
64,2229.662278287906,2229.662278287906,2237.904556787286,2249.1860711152603
65,2258.98833769299,2258.98833769299,2267.611435425273,2284.711946803187
66,2268.9137753161945,2268.9137753161945,2284.711946803187,2299.8287491287615
67,2309.3389495897827,2309.3389495897827,2336.335631381454,2356.5168157621756
68,2317.585815759824,2336.335631381454,2356.5168157621756,2373.767299207903
69,2346.331649361858,2346.331649361858,2373.767299207903,2389.6473026669078
70,2364.013844700372,2364.013844700372,2389.6473026669078,2405.2914440421096
71,2390.352645432703,2390.352645432703,2405.2914440421096,2416.5454435272727
72,2412.216889603556,2412.216889603556,2416.5454435272727,2434.247818262964
73,2420.3180819071285,2420.3180819071285,2434.247818262964,2447.319930744966
74,2430.958239651602,2430.958239651602,2447.319930744966,2462.6825918948125
75,2454.227115656053,2454.227115656053,2483.3571194780225,2499.8589647660706
76,2462.586965665447,2483.3571194780225,2499.8589647660706,2518.4699561879656
77,2490.1844798362563,2490.1844798362563,2519.7614424608882,2537.3717922676656
78,2522.4249764513984,2522.4249764513984,2537.3717922676656,2555.9997872110152
79,2536.7915737403164,2536.7915737403164,2555.9997872110152,2569.349038078946
80,2586.668013484741,2586.668013484741,2593.644127122066,2607.091740708408
81,2636.3026213168578,2636.3026213168578,2651.883305902725,2666.183365809933
82,2668.551154085049,2668.551154085049,2668.868675168175,2680.274674328528
83,2715.2545619025886,2715.2545619025886,2733.6574796272084,2747.326341660142
84,2756.455750954427,2756.455750954427,2766.6050246518093,2785.762224974504
85,2798.553806602511,2798.553806602511,2809.2243692539478,2821.4074743143424
86,2818.1718186593484,2818.1718186593484,2821.4074743143424,2841.6105804658628
87,2856.5851744948473,2856.5851744948473,2858.486917081415,2869.679680843223
88,2881.9759641687037,2881.9759641687037,2884.978281165504,2903.7179574845823
89,2904.630109151427,2904.630109151427,2904.68449638455,2914.897206519077
90,2914.29669936047,2914.29669936047,2953.9783657639264,2962.920735303019
91,2935.224984851591,2953.9783657639264,2962.920735303019,2981.831936643436
92,2983.1368599356133,2983.1368599356133,2988.4954499632727,3003.5837560745626
93,2996.114710244889,2996.114710244889,3004.0475159457787,3022.40928992549
94,3015.810239594196,3015.810239594196,3026.947023400257,3047.095493727091
95,3059.304673726816,3059.304673726816,3067.030431794275,3079.429932664949
96,3112.691769275886,3112.691769275886,3119.844838593942,3132.828070682709
97,3126.9388806335123,3126.9388806335123,3133.580947891206,3146.4258521316883
98,3181.615496095617,3181.615496095617,3191.5694082002324,3209.4060565015516
99,3222.489339886629,3222.489339886629,3235.027480357889,3252.103325594169
100,3276.1785211495976,3276.1785211495976,3279.4096248892592,3291.7757967540742
101,3300.3295154042225,3300.3295154042225,3306.244141967609,3324.4545000830317
102,3350.339960492128,3350.339960492128,3370.105559084742,3385.486116865173
103,3397.7414049875747,3397.7414049875747,3409.5980787383273,3426.3991981136796
104,3431.778621295586,3431.778621295586,3444.074589969165,3464.3728218932447
105,3475.315320512876,3475.315320512876,3476.846634478133,3489.914465953202
106,3527.769884030484,3527.769884030484,3548.516389122559,3568.3361827199938
107,3577.166473197199,3577.166473197199,3584.912079500503,3603.1713409300573
108,3619.9495544140245,3619.9495544140245,3625.8280025433846,3642.293755006357
109,3673.4750525341724,3673.4750525341724,3702.927900134906,3718.675840217511
110,3721.505388482928,3721.505388482928,3730.353050774591,3747.797765388185
111,3744.39514118617,3744.39514118617,3758.055793576667,3776.501142851091
112,3775.977468605748,3775.977468605748,3814.6270795274127,3836.2482587505824
113,3807.121465278751,3814.6270795274127,3863.0089580086665,3878.7074453714545
114,3833.4389672839006,3863.0089580086665,3878.7074453714545,3895.7839963168344
115,3879.3298969152866,3879.3298969152866,3899.831818083277,3919.6546352503865
116,3924.886240778174,3924.886240778174,3950.0051116794075,3960.468045676425
117,3952.998156508493,3952.998156508493,3965.433975990092,3976.429464729531
118,3997.8659828706254,3997.8659828706254,4006.67490691715,4026.218791542976
119,4039.711428703643,4039.711428703643,4045.193555925823,4061.0957350437707
120,4053.8717243443193,4053.8717243443193,4062.4238064502815,4079.101089768872
121,4067.039905079966,4067.039905079966,4090.47398540892,4100.7652741035745
122,4114.066591219214,4114.066591219214,4120.733008335543,4134.086675012377
123,4134.16362160329,4134.16362160329,4155.637490069548,4175.103357598187
124,4179.039018249078,4179.039018249078,4181.259972493486,4195.30685717863
125,4220.9771774175,4220.9771774175,4224.097406237153,4242.270858283391
126,4272.201290946829,4272.201290946829,4287.649303498556,4300.896060742833
127,4297.675361148983,4297.675361148983,4300.896060742833,4312.921118073896
128,4352.803583145703,4352.803583145703,4352.84317546749,4369.451333720562
129,4373.340313547281,4373.340313547281,4382.904030517214,4402.741624188104
130,4398.504035727535,4398.504035727535,4408.214447208673,4422.0063230672895
131,4452.313094523958,4452.313094523958,4456.357196705459,4475.586880734951
132,4473.493921170748,4473.493921170748,4481.282329098084,4497.199391059864
133,4516.899592184035,4516.899592184035,4528.699758075668,4544.991549954967
134,4539.205929504097,4539.205929504097,4544.991549954967,4563.123357710924
135,4590.434960947022,4590.434960947022,4591.70737013534,4612.647687220146
136,4606.818173286613,4606.818173286613,4617.958127371063,4627.541417469518
137,4658.464063485243,4658.464063485243,4676.359412646853,4695.896509047563
138,4704.411459589537,4704.411459589537,4704.481449539264,4719.482785453221
139,4759.012117329919,4759.012117329919,4766.7082825552225,4782.5809597288035
140,4808.0539282795935,4808.0539282795935,4811.742021736365,4830.82074620603
141,4842.4751254051525,4842.4751254051525,4849.436142025967,4866.072114093885
142,4874.05733074941,4874.05733074941,4885.414213587436,4903.232664576088
143,4906.315171434165,4906.315171434165,4910.691385703989,4926.807531019711
144,4933.937638124435,4933.937638124435,4934.343582881193,4949.176063971034
145,4958.837236723035,4958.837236723035,4962.5612970722295,4978.374244278208
146,4968.801891472281,4968.801891472281,4978.374244278208,4987.961197831346
147,4997.855896844738,4997.855896844738,5008.231279049518,5024.514311659183
148,5008.954415570568,5008.954415570568,5024.514311659183,5037.633537758159
149,5035.328035392487,5035.328035392487,5044.626646006013,5058.092434583275
150,5085.544507777835,5085.544507777835,5087.1831186235,5102.35265221654
151,5126.273383748215,5126.273383748215,5140.517972579091,5155.104365750288
152,5163.072474972133,5163.072474972133,5178.760129819011,5194.723407391129
153,5177.454978251152,5178.760129819011,5194.723407391129,5207.40712302915
154,5215.696068522758,5215.696068522758,5221.056220420037,5238.619482238964
155,5256.566749152346,5256.566749152346,5268.057284626308,5286.998696514678
156,5289.124902220632,5289.124902220632,5300.957020254422,5314.617180021084
157,5322.009637898509,5322.009637898509,5328.067296577363,5340.943238715571
158,5353.349024042067,5353.349024042067,5362.579755364241,5377.473359224827
159,5373.289038236247,5373.289038236247,5395.438672118086,5413.863474675533
160,5412.3349420010145,5412.3349420010145,5428.7374595279125,5442.047535403929
161,5445.922599338174,5445.922599338174,5458.420733749986,5470.566596964749
162,5477.652796295068,5477.652796295068,5491.381364896943,5504.623582836769
163,5498.1259056075405,5498.1259056075405,5504.623582836769,5520.564971364321
164,5544.429902953055,5544.429902953055,5547.089358853066,5563.336117657535
165,5567.493127076024,5567.493127076024,5570.238275439523,5583.537619896799
166,5618.255084471712,5618.255084471712,5636.247921978978,5653.852801491448
167,5654.5986185741085,5654.5986185741085,5664.499037184693,5678.529202778353
168,5697.799777711902,5697.799777711902,5707.524686344418,5726.636402210125
169,5734.4159954742845,5734.4159954742845,5742.7655087835765,5760.088888057318
170,5762.461420848652,5762.461420848652,5779.666597393685,5793.694623755877
171,5813.49793406093,5813.49793406093,5822.650763963192,5839.973724200025
172,5854.174323593174,5854.174323593174,5854.894201355312,5868.741211465578
173,5907.877457233064,5907.877457233064,5945.470912541758,5960.845995356299
174,5937.802688114345,5945.470912541758,5960.845995356299,5973.341944713654
175,5955.636391094154,5955.636391094154,6007.723759946846,6016.958422531137
176,5965.512695128992,6007.723759946846,6037.003101977489,6054.614586910937
177,6008.504113590025,6037.003101977489,6054.614586910937,6071.171793675363
178,6022.077844197441,6051.375092781668,6071.171793675363,6088.254901755636
179,6058.581722774142,6058.581722774142,6088.254901755636,6104.860117660121
180,6098.729479970398,6098.729479970398,6104.860117660121,6121.157534537924
181,6117.828166465089,6117.828166465089,6128.80028123925,6141.859465233052
182,6136.91001880429,6136.91001880429,6156.7930692092605,6170.476049534791
183,6166.022368043734,6166.022368043734,6178.434798796756,6192.375333412954
184,6178.814932476958,6178.814932476958,6202.732829526249,6219.994888508257
185,6189.720828349001,6202.732829526249,6236.473625127621,6253.919608215054
186,6206.143641766211,6236.473625127621,6253.919608215054,6267.940450538382
187,6250.154783806572,6250.154783806572,6271.27278501696,6284.705251772072
188,6269.089752310811,6271.27278501696,6300.159089653309,6318.589577306733
189,6283.526144240391,6300.159089653309,6318.589577306733,6338.156835882707
190,6314.866050088946,6314.866050088946,6339.777278801419,6353.726400646126
191,6347.461461233642,6347.461461233642,6353.726400646126,6369.608924705387
192,6365.841327823132,6365.841327823132,6375.154847019862,6391.328008046553
193,6392.911867717103,6392.911867717103,6400.459936708538,6419.697671171172
194,6420.899362754832,6420.899362754832,6436.649611551089,6447.344442070058
195,6431.876220911191,6436.649611551089,6466.765544171994,6480.834033962672
196,6462.6225294719725,6466.765544171994,6489.752711975787,6507.952469907822
197,6513.887034550323,6513.887034550323,6520.223310065512,6538.810814176549
198,6524.758735171536,6524.758735171536,6538.810814176549,6552.170200988597
199,6546.7254673527605,6546.7254673527605,6552.170200988597,6570.382772417701
200,6602.143291910704,6602.143291910704,6612.880378162603,6631.091686615647
201,6635.090502549237,6635.090502549237,6637.269345910764,6656.811788687278
202,6661.804293142216,6661.804293142216,6678.973835667688,6697.274402994921
203,6698.555797010352,6698.555797010352,6707.362215467247,6723.845451727584
204,6727.951736248531,6727.951736248531,6737.3440487442995,6756.5626286760735
205,6765.152051267714,6765.152051267714,6785.28545085138,6796.484013132182
206,6779.150837316039,6785.28545085138,6829.559309795247,6846.23381201555
207,6816.725604297159,6829.559309795247,6857.7704766513025,6879.926734431575
208,6870.766304248692,6870.766304248692,6879.926734431575,6894.639879144864
209,6917.987702370825,6917.987702370825,6937.611536868564,6950.348254300599
210,6927.51016015112,6937.611536868564,6964.278793025313,6982.955757231711
211,6976.935274940348,6976.935274940348,6982.955757231711,6998.481651704706
212,6985.980140186365,6985.980140186365,6998.481651704706,7015.623050921579
213,6998.4851062226835,6998.4851062226835,7015.623050921579,7031.108738745335
214,7015.475946685839,7015.475946685839,7031.108738745335,7044.862850405006
215,7064.181904325126,7064.181904325126,7074.419244502863,7086.970344947801
216,7083.523813664229,7083.523813664229,7097.5017504544485,7111.354783509544
217,7111.181663756097,7111.181663756097,7123.561962218908,7136.872999666614
218,7149.7660765089595,7149.7660765089595,7165.257359613889,7181.1935353695835
219,7169.440098999916,7169.440098999916,7181.1935353695835,7193.100178344439
220,7212.708717057838,7212.708717057838,7242.643352601474,7258.330395931984
221,7247.159896299692,7247.159896299692,7258.330395931984,7278.328982227958
222,7261.522340102324,7261.522340102324,7278.328982227958,7296.490659889941
223,7308.101650978664,7308.101650978664,7310.3073388714165,7325.983647977697
224,7326.471341919525,7326.471341919525,7353.848299262185,7373.84973165779
225,7346.669513468844,7353.848299262185,7373.84973165779,7388.962369552195
226,7385.429270185955,7385.429270185955,7397.846330955131,7414.63873448545
227,7412.971883402833,7412.971883402833,7428.618865559816,7446.73950867513
228,7442.827383823696,7442.827383823696,7466.229454150714,7478.647596530776
229,7457.574175581334,7466.229454150714,7496.433706340989,7513.501968458914
230,7496.5891195366885,7496.5891195366885,7526.436211216065,7544.1520196868405
231,7538.381817949412,7538.381817949412,7544.86549712035,7558.152979377334
232,7588.9715719262085,7588.9715719262085,7594.414900807295,7607.390270618527
233,7641.90089332379,7641.90089332379,7642.3352535662825,7662.143056962826
234,7692.915573518698,7692.915573518698,7693.898578888651,7707.286613724469
235,7747.536861688885,7747.536861688885,7749.913635682983,7769.550201233775
236,7764.18433755712,7764.18433755712,7819.41699189573,7839.802401734556
237,7786.1933746020995,7819.41699189573,7839.802401734556,7855.8053454680885
238,7819.768224857606,7836.447024212172,7855.8053454680885,7874.852572894501
239,7867.0474020120155,7867.0474020120155,7881.945180029784,7898.888821293606
240,7900.871986795524,7900.871986795524,7916.269034582023,7931.860330553603
241,7911.523524943881,7916.269034582023,7931.860330553603,7944.262102572617
242,7957.36793577782,7957.36793577782,7970.632502270688,7981.110052166749
243,7975.721061675517,7975.721061675517,7992.600881653941,8012.99003269534
244,7994.671431203639,7994.671431203639,8012.99003269534,8028.19873833126
245,8034.043382491989,8034.043382491989,8042.733536990592,8062.005407542758
246,8078.37106209126,8078.37106209126,8088.599322045107,8108.4010110537065
247,8122.287369364759,8122.287369364759,8124.469403783024,8137.808769597881
248,8131.040248629358,8131.040248629358,8142.15406543017,8157.362958909708
249,8181.8532864640165,8181.8532864640165,8228.231005993615,8246.346392144877
250,8190.932998056835,8228.231005993615,8246.346392144877,8263.770574207989
251,8201.758787125114,8231.284291569384,8263.770574207989,8279.822717441593
252,8239.170760384306,8239.170760384306,8279.822717441593,8293.012616161035
253,8250.039754670328,8250.039754670328,8293.012616161035,8311.459689624706
254,8282.802106557308,8282.802106557308,8311.459689624706,8325.763103367566
255,8299.2865381225,8304.272731205208,8333.704496284463,8347.68594752381
256,8344.528208703761,8344.528208703761,8349.650235680254,8359.351975491121
