# file created by code in harbour_fns_1896438.jl
# file created on 2026-03-09 at 15:40:01
# parameter: seed = 1896624
# parameter: T = 30000.0
# parameter: lower_interarrival = 7.8
# parameter: upper_interarrival = 55.8
# parameter: mean_process_times = [11.0, 16.0]
# parameter: max_queue = [9223372036854775807, 4]
# parameter: time_units = hours
id,arrival_time,start_service_times,start_service_times,completion_time
1,0.0,0.0,11.303815827293375,30.51982982495842
2,39.66204183846201,39.66204183846201,58.144218099019184,75.18354356915034
3,53.141368327381315,58.144218099019184,75.18354356915034,89.42725718820505
4,77.97962628085702,77.97962628085702,89.42725718820505,106.29105005352832
5,97.16439967445005,97.16439967445005,106.29105005352832,123.83543059897127
6,108.15009625848835,108.15009625848835,124.9148823363646,137.77394841266334
7,139.89698008047546,139.89698008047546,143.90488329709785,160.67130107307284
8,183.24280751226848,183.24280751226848,187.39919275247155,200.20216914575045
9,218.91509575354635,218.91509575354635,219.35835347256983,234.74680913073604
10,234.58140356660522,234.58140356660522,239.63649882501872,256.4906978073431
11,269.89365503872494,269.89365503872494,294.4802844577291,311.74729340808796
12,301.4706237991457,301.4706237991457,311.74729340808796,330.85570531478015
13,349.2267033378058,349.2267033378058,355.5574231326088,365.5741720434225
14,357.15177071635475,357.15177071635475,365.5741720434225,378.1144457230263
15,403.08871921890506,403.08871921890506,412.45024303083756,423.97867826704373
16,420.05169816134367,420.05169816134367,431.4441453892589,448.6278579970089
17,459.3193186134774,459.3193186134774,464.7226874897188,479.4132148847106
18,504.9407080844056,504.9407080844056,507.78294847026405,520.1628227300633
19,559.1351936911485,559.1351936911485,566.612318942144,582.4446728573636
20,603.7530058028813,603.7530058028813,605.076962783432,626.1530947769476
21,648.1211333137742,648.1211333137742,663.2554550978059,677.7754068953317
22,690.6775149402084,690.6775149402084,697.1457336278323,709.9891719551563
23,714.186509723888,714.186509723888,743.9916809904873,762.6454152746207
24,768.4543468489765,768.4543468489765,781.7620442828337,796.2164411013026
25,811.3953080976386,811.3953080976386,811.3992434333533,825.5688583738697
26,853.2431451322492,853.2431451322492,868.3956985896683,885.8573853548575
27,872.4816380920761,872.4816380920761,903.3064222072278,912.5154483000354
28,897.6303194248974,903.3064222072278,913.4548675373937,931.7973253783016
29,907.8145744661737,913.4548675373937,931.7973253783016,947.4931491398066
30,932.234688160466,932.234688160466,947.4931491398066,956.5659225881838
31,961.7941282811463,961.7941282811463,967.6378693090118,984.2948636209417
32,1014.0251145983418,1014.0251145983418,1039.3384892559482,1057.6035753807612
33,1026.1321323448065,1039.3384892559482,1057.6035753807612,1077.4411517470264
34,1057.80047029654,1057.80047029654,1077.4411517470264,1093.9521325378062
35,1111.468438129178,1111.468438129178,1157.2726870199635,1173.657608207488
36,1139.8437452011985,1157.2726870199635,1179.426293852893,1195.997817982263
37,1182.1797932809977,1182.1797932809977,1195.997817982263,1214.3256432825453
38,1195.6861519351412,1195.6861519351412,1214.3256432825453,1228.6540824918966
39,1236.937079014724,1236.937079014724,1261.155484335159,1273.4103905540092
40,1282.075079043575,1282.075079043575,1288.177627150221,1302.8117480110575
41,1316.3486289136176,1316.3486289136176,1320.924523980575,1336.8190230681917
42,1325.6170243240188,1325.6170243240188,1336.8190230681917,1355.302397134171
43,1362.0157122923556,1362.0157122923556,1386.887448615292,1403.3133719391685
44,1411.1163496040149,1411.1163496040149,1427.5152590464975,1442.9252865451458
45,1446.9784431523008,1446.9784431523008,1452.5049066201716,1466.3416282069522
46,1487.9959815270518,1487.9959815270518,1519.008359360046,1533.4308571207887
47,1499.7402681157223,1519.008359360046,1533.4308571207887,1549.4533785106917
48,1518.1253484115523,1526.5910956777132,1549.4533785106917,1568.576455318278
49,1528.3425610355443,1528.6282938254408,1568.576455318278,1579.9085855655087
50,1560.7806504527503,1560.7806504527503,1579.9085855655087,1601.7089863227357
51,1584.7406197050104,1584.7406197050104,1601.7089863227357,1616.999613660371
52,1608.6204740950222,1608.6204740950222,1634.7139381479917,1650.0156460380501
53,1640.699729071858,1640.699729071858,1653.3412376045071,1670.0637162854787
54,1690.135429124561,1690.135429124561,1705.38063937029,1724.3719539477333
55,1742.0991505546613,1742.0991505546613,1743.6233538962063,1758.2612046601205
56,1796.5762728601196,1796.5762728601196,1805.6127544531932,1818.0666109251267
57,1822.331629818325,1822.331629818325,1851.6437258134765,1868.0489053909932
58,1877.421020988494,1877.421020988494,1897.7078897713798,1914.3557241954668
59,1900.8322769731762,1900.8322769731762,1914.3557241954668,1929.6265878161792
60,1918.7080777401704,1918.7080777401704,1929.6265878161792,1946.3201632441235
61,1966.9459249688055,1966.9459249688055,1969.7312266468557,1993.1976025736699
62,1998.8879258370919,1998.8879258370919,2008.8875194249317,2026.5000068851937
63,2050.2649157827495,2050.2649157827495,2079.232681612379,2095.819699121664
64,2058.1368024953204,2079.232681612379,2095.819699121664,2109.6890214363484
65,2086.857836332486,2092.0416031915756,2109.6890214363484,2126.533918314368
66,2134.1617448019215,2134.1617448019215,2141.861966278001,2160.550388278851
67,2155.4160362403322,2155.4160362403322,2160.550388278851,2173.183258015104
68,2175.450033498122,2175.450033498122,2176.8772269006913,2191.360581502133
69,2210.5480375796533,2210.5480375796533,2211.8178584907732,2228.0305701415505
70,2253.8163345315224,2253.8163345315224,2256.744634727472,2272.170673307929
71,2280.1809356240733,2280.1809356240733,2306.6766212238085,2329.079168816577
72,2301.2069180921744,2306.6766212238085,2329.079168816577,2345.94390272575
73,2337.7216385245733,2337.7216385245733,2345.94390272575,2357.2806117575387
74,2362.421830283017,2362.421830283017,2367.1007650401075,2385.163782143149
75,2416.141765685067,2416.141765685067,2457.163079555838,2472.4125240307562
76,2443.795518347323,2457.163079555838,2472.4125240307562,2486.3109848906547
77,2475.565511169941,2475.565511169941,2486.3109848906547,2501.372512925607
78,2512.6328650345713,2512.6328650345713,2515.2230011102183,2526.0333102969594
79,2534.262824559979,2534.262824559979,2534.687950148421,2549.293789894556
80,2558.665408070908,2558.665408070908,2573.3412370289743,2584.6737137051136
81,2589.525039676784,2589.525039676784,2601.681249291525,2617.813959165299
82,2631.61107685784,2631.61107685784,2649.532089086815,2665.3677937545995
83,2654.9148313503615,2654.9148313503615,2665.3677937545995,2682.3674883854305
84,2693.2863588596047,2693.2863588596047,2695.2660007113686,2709.0531177846983
85,2702.852143939881,2702.852143939881,2709.0531177846983,2721.341809735396
86,2729.8734954677016,2729.8734954677016,2751.3686879579677,2768.668460284708
87,2752.4790756231346,2752.4790756231346,2768.668460284708,2790.359020569045
88,2789.6417911385743,2789.6417911385743,2790.359020569045,2810.429707301274
89,2800.404680977963,2800.404680977963,2810.429707301274,2827.972538264302
90,2809.6082459043164,2809.6082459043164,2827.972538264302,2841.0984394550887
91,2845.4928139886215,2845.4928139886215,2851.9110869391216,2864.7769629636446
92,2900.5374025035935,2900.5374025035935,2924.631229998046,2946.9270452445903
93,2922.1607093293765,2924.631229998046,2946.9270452445903,2966.8087096798045
94,2940.402266859835,2940.402266859835,2966.8087096798045,2981.016545802437
95,2976.801133310673,2976.801133310673,2983.813204441785,2995.877789446396
96,2995.4465221044597,2995.4465221044597,3008.4901731346,3027.475741634765
97,3003.578347747637,3008.4901731346,3027.4956563890837,3041.4257259888673
98,3021.168470185406,3027.4956563890837,3041.4257259888673,3056.754786197821
99,3054.2123918181364,3054.2123918181364,3056.754786197821,3074.209350405514
100,3100.061276014636,3100.061276014636,3115.64293709904,3133.0915041433223
101,3109.0415984456645,3115.64293709904,3133.0915041433223,3147.6962395237606
102,3131.4506232400145,3131.4506232400145,3147.6962395237606,3165.5934871975737
103,3180.5227399388596,3180.5227399388596,3182.4073010098823,3201.656515508134
104,3225.0118466725708,3225.0118466725708,3241.045210963846,3263.8011853407825
105,3244.137591056665,3244.137591056665,3263.8011853407825,3277.406658455368
106,3266.073314150304,3266.073314150304,3278.2960828080913,3295.5814497533074
107,3276.6889777958413,3278.2960828080913,3295.5814497533074,3314.8741728927826
108,3323.744395415817,3323.744395415817,3326.8060788699313,3346.2710563937985
109,3346.2863657059984,3346.2863657059984,3352.3050109023407,3368.7029269235272
110,3385.9238312400234,3385.9238312400234,3396.102326417634,3409.4059583881517
111,3419.3799509195187,3419.3799509195187,3420.6432321046173,3433.6091420975968
112,3474.680311180701,3474.680311180701,3481.1635123369783,3498.870304200807
113,3516.429084135434,3516.429084135434,3517.5391396020004,3541.6183523469717
114,3544.154105385733,3544.154105385733,3551.392797320284,3566.210508657475
115,3574.4353899860603,3574.4353899860603,3577.6119035537804,3591.433156308055
116,3617.2935962862916,3617.2935962862916,3625.101145324741,3640.1185228885392
117,3656.0126732510694,3656.0126732510694,3659.7633665715784,3674.944092890169
118,3680.778567934357,3680.778567934357,3695.420273801677,3716.2260725965148
119,3694.3153237281617,3695.420273801677,3737.414239209194,3755.0040468926695
120,3734.253154405358,3737.414239209194,3773.856541694622,3788.9625107080656
121,3744.1477813871047,3773.856541694622,3788.9625107080656,3805.050406566652
122,3762.262678038046,3779.56080481468,3805.050406566652,3828.3838450487806
123,3772.7557301774946,3779.6110652936554,3828.3838450487806,3842.929404543606
124,3806.362767635376,3806.362767635376,3842.929404543606,3860.74843021385
125,3834.318480564121,3834.318480564121,3860.74843021385,3877.2628275885136
126,3877.520716313169,3877.520716313169,3880.501838713008,3896.637273460691
127,3889.772533076153,3889.772533076153,3896.637273460691,3911.1150147490553
128,3933.051168516712,3933.051168516712,3939.8546278587264,3953.0433530279524
129,3987.246071843636,3987.246071843636,4011.733559548724,4028.463573780752
130,4032.35899318076,4032.35899318076,4041.7571599009493,4064.501747852475
131,4054.342809691786,4054.342809691786,4072.5466064405596,4092.135210847361
132,4075.131770662929,4075.131770662929,4094.564696378103,4110.990682753269
133,4107.099840030825,4107.099840030825,4114.969791053746,4134.076217896625
134,4118.850945472892,4118.850945472892,4141.802612200306,4160.709165764571
135,4142.417137917688,4142.417137917688,4160.709165764571,4176.494485059917
136,4190.896990302814,4190.896990302814,4199.560362087049,4218.623681182041
137,4235.321190446497,4235.321190446497,4237.087671922789,4252.571084697501
138,4291.110431184824,4291.110431184824,4297.464797239912,4307.921881817428
139,4323.700586503814,4323.700586503814,4336.160366534263,4353.643941131751
140,4357.0613254654745,4357.0613254654745,4379.49764226198,4394.805506387809
141,4408.552921157823,4408.552921157823,4414.391022341249,4433.645016591532
142,4434.046712126303,4434.046712126303,4446.077634608148,4462.971011907655
143,4475.381567423321,4475.381567423321,4480.252663278884,4490.834783004986
144,4485.462050027379,4485.462050027379,4499.095610397459,4514.199752399276
145,4532.10861033202,4532.10861033202,4548.421768085686,4565.139395907744
146,4571.536740554403,4571.536740554403,4583.115512348773,4600.098259306113
147,4618.338793675052,4618.338793675052,4641.093183029362,4659.938609814183
148,4637.518948963154,4641.093183029362,4659.938609814183,4672.748271651078
149,4686.458919514004,4686.458919514004,4699.202188094007,4719.684030710526
150,4736.221256097934,4736.221256097934,4742.161263187922,4758.579872437577
151,4790.02298967881,4790.02298967881,4795.054501724252,4814.698722068283
152,4821.7399337900015,4821.7399337900015,4825.46419420277,4844.819427374617
153,4866.747433615961,4866.747433615961,4889.154155122989,4908.900364546151
154,4901.474853224883,4901.474853224883,4908.900364546151,4929.458358750833
155,4944.120778179671,4944.120778179671,4945.940571825153,4961.643281949249
156,4953.149112892834,4953.149112892834,4975.36151963011,4993.530328555697
157,4986.7355105252645,4986.7355105252645,5000.8064330951765,5020.895311618949
158,5041.960969662069,5041.960969662069,5046.824087579519,5066.4636491945075
159,5091.806518001286,5091.806518001286,5092.087296160647,5106.742493885989
160,5118.24359742254,5118.24359742254,5135.414760410916,5150.453861666657
161,5131.411701640655,5135.414760410916,5150.453861666657,5167.567888595673
162,5182.7311507986415,5182.7311507986415,5196.48838248466,5210.462319113883
163,5235.759857241098,5235.759857241098,5237.037776969979,5253.028560905673
164,5244.223832721003,5244.223832721003,5253.028560905673,5264.478965913818
165,5258.327545216826,5258.327545216826,5268.429342545852,5284.460695824625
166,5292.72042396026,5292.72042396026,5301.060878205266,5315.86942116904
167,5330.496739516708,5330.496739516708,5343.847273290725,5359.322312067798
168,5377.221805629652,5377.221805629652,5382.35354350394,5398.697835970147
169,5405.810445320367,5405.810445320367,5411.686509134138,5431.076730308108
170,5441.725579219188,5441.725579219188,5453.2199456177395,5470.396276789611
171,5469.769245215606,5469.769245215606,5491.883462681699,5505.1101973695395
172,5520.902322088949,5520.902322088949,5522.565317359049,5541.8980324323775
173,5544.040595964784,5544.040595964784,5551.641286736041,5564.846092885422
174,5576.403865103393,5576.403865103393,5576.792312481629,5596.018544626178
175,5630.745965310013,5630.745965310013,5647.381626359955,5665.887710426984
176,5646.742510870557,5647.381626359955,5665.887710426984,5680.155890954474
177,5685.201206923622,5685.201206923622,5693.775120191178,5710.17463922206
178,5727.497182494626,5727.497182494626,5751.741424083876,5766.269392146913
179,5763.886487786659,5763.886487786659,5782.117587324684,5791.816483464603
180,5807.1885253594355,5807.1885253594355,5813.013969712149,5833.210480660114
181,5854.043002070498,5854.043002070498,5857.116583707607,5874.233488377457
182,5881.092276675502,5881.092276675502,5911.4954411338995,5929.811737572511
183,5890.786697629651,5911.4954411338995,5929.811737572511,5944.092629358
184,5940.655804282817,5940.655804282817,5950.555656540656,5966.566967085203
185,5962.384980447102,5962.384980447102,5973.532385762046,5980.44157464756
186,6015.20087774635,6015.20087774635,6036.816707409618,6056.410419485856
187,6029.187912661953,6036.816707409618,6056.410419485856,6074.405471526784
188,6059.584819862133,6059.584819862133,6074.405471526784,6084.603636234617
189,6078.436245819063,6078.436245819063,6087.019087805788,6104.930755552865
190,6090.025013349813,6090.025013349813,6104.930755552865,6120.721826457846
191,6114.318354521964,6114.318354521964,6120.721826457846,6139.590820149334
192,6144.819146332918,6144.819146332918,6152.6979225011955,6166.052120767873
193,6154.303836658279,6154.303836658279,6166.052120767873,6177.719955875265
194,6195.48078393214,6195.48078393214,6202.921312286189,6217.713466842685
195,6221.042624983721,6221.042624983721,6228.592293174033,6242.140287815908
196,6258.896782279127,6258.896782279127,6259.401522940752,6273.1542086339105
197,6274.007471750593,6274.007471750593,6279.769016088703,6298.762072944747
198,6307.801364281359,6307.801364281359,6315.948700411274,6329.625938847745
199,6363.109230541411,6363.109230541411,6375.890814946187,6390.582444928568
200,6385.230973463538,6385.230973463538,6394.839705759004,6412.451070512877
201,6395.368103017365,6395.368103017365,6412.451070512877,6434.157639599189
202,6410.660648133161,6410.660648133161,6434.157639599189,6449.560854937339
203,6446.917318958071,6446.917318958071,6466.981309018176,6486.889854712906
204,6475.523444345938,6475.523444345938,6486.889854712906,6504.833938156941
205,6503.394111353562,6503.394111353562,6534.884708806084,6552.222712553247
206,6548.1705237832275,6548.1705237832275,6552.222712553247,6569.368147054281
207,6571.327557589538,6571.327557589538,6590.664661023411,6613.320276837232
208,6625.645993932176,6625.645993932176,6626.576751576726,6644.493583082654
209,6667.853806511698,6667.853806511698,6689.886881437387,6703.847978705208
210,6702.204248752425,6702.204248752425,6709.877168001819,6725.208254881129
211,6726.914581859105,6726.914581859105,6728.874511086146,6748.308770456413
212,6781.513337228702,6781.513337228702,6788.596053074044,6801.599088842295
213,6830.532782827691,6830.532782827691,6852.491898291681,6871.208449825787
214,6838.456922147505,6852.491898291681,6871.208449825787,6887.854065008301
215,6891.270805229722,6891.270805229722,6894.274455716763,6911.40379775198
216,6937.888790432124,6937.888790432124,6943.095873159952,6960.601557001207
217,6981.209343301881,6981.209343301881,7001.502066780667,7020.563762152999
218,6993.680350423165,7001.502066780667,7020.563762152999,7032.5976997510115
219,7018.691733676376,7018.691733676376,7040.478986823835,7057.2753978815845
220,7073.3074031579,7073.3074031579,7078.954573142458,7092.839764066187
221,7089.350324693177,7089.350324693177,7092.839764066187,7113.19842591662
222,7109.859016528206,7109.859016528206,7156.289608592641,7163.085098932367
223,7152.703485819841,7156.289608592641,7163.085098932367,7173.815739243648
224,7180.988278291314,7180.988278291314,7184.776930861242,7200.525385009033
225,7223.198528212797,7223.198528212797,7243.3317683650075,7261.160476780118
226,7232.045496717477,7243.3317683650075,7261.160476780118,7274.192151977154
227,7284.72056063937,7284.72056063937,7301.943569792049,7319.334819908908
228,7300.9376695429555,7301.943569792049,7319.334819908908,7335.204352087588
229,7349.4295191773035,7349.4295191773035,7366.020632752154,7381.187974678023
230,7378.479330097822,7378.479330097822,7381.187974678023,7396.670450346069
231,7417.176019719581,7417.176019719581,7419.541007391677,7435.522986701462
232,7442.225482764642,7442.225482764642,7455.968566427864,7477.262518057761
233,7493.165865799898,7493.165865799898,7515.56640595036,7529.291559978456
234,7513.14984606202,7515.56640595036,7529.291559978456,7543.91928177128
235,7541.146813584162,7541.146813584162,7543.933317304088,7562.69327650253
236,7595.975795212467,7595.975795212467,7597.786891479737,7612.985983389565
237,7643.3236117154665,7643.3236117154665,7645.844115763596,7656.016642980812
238,7670.0490113335345,7670.0490113335345,7686.4754958495205,7698.632038767947
239,7700.568016360044,7700.568016360044,7704.723154102926,7720.749479735287
240,7732.669267006853,7732.669267006853,7733.013064325807,7749.468087143449
241,7759.924129886313,7759.924129886313,7794.502182143087,7810.242504558688
242,7770.904867704601,7794.502182143087,7810.242504558688,7826.199358786452
243,7780.086526482857,7801.875644756216,7826.199358786452,7832.937240675108
244,7788.030688351794,7807.964068489689,7832.937240675108,7848.747413887015
245,7819.323251835039,7825.47678364838,7848.747413887015,7865.636532442818
246,7837.5376054111675,7837.5376054111675,7865.636532442818,7879.241809120282
247,7846.9355860504165,7846.9355860504165,7879.241809120282,7899.417837246582
248,7885.796586386957,7885.796586386957,7899.417837246582,7912.224085444986
249,7932.231332453582,7932.231332453582,7952.763371873093,7971.147745999406
250,7962.811926354441,7962.811926354441,7971.147745999406,7987.847762669659
251,8000.514858881642,8000.514858881642,8030.788471467319,8050.129481332723
252,8021.813747633046,8030.788471467319,8050.129481332723,8068.141540231918
253,8065.072443530521,8065.072443530521,8117.6104448100905,8137.619741184826
254,8090.822787015238,8117.6104448100905,8137.619741184826,8150.549627758387
255,8120.570372298065,8121.968220054044,8150.549627758387,8162.169498520541
256,8149.322657972458,8149.322657972458,8184.6724378767885,8199.489855710066
