# file created by code in harbour_fns_1896438.jl
# file created on 2026-03-09 at 15:39:53
# parameter: seed = 1896516
# parameter: T = 30000.0
# parameter: lower_interarrival = 7.8
# parameter: upper_interarrival = 55.8
# parameter: mean_process_times = [11.0, 16.0]
# parameter: max_queue = [9223372036854775807, 4]
# parameter: time_units = hours
id,arrival_time,start_service_times,start_service_times,completion_time
1,0.0,0.0,40.44929888475156,59.94367053655235
2,33.22935835234309,40.44929888475156,68.35340603626733,83.13758080979267
3,78.4369180951954,78.4369180951954,91.27225255001521,105.6051391964822
4,91.51660571389596,91.51660571389596,105.6051391964822,120.83611146249457
5,106.03385026584084,106.03385026584084,120.83611146249457,144.27311955324546
6,133.48923177948376,133.48923177948376,154.582663459607,167.1564294032718
7,167.6673178434261,167.6673178434261,168.60195503176865,185.42026900688728
8,211.73704663294038,211.73704663294038,213.4623715799917,227.79511512263764
9,222.40465408098265,222.40465408098265,227.79511512263764,239.8395819287206
10,264.01717024406344,264.01717024406344,305.0333833972563,317.28974738632456
11,291.6462080261992,305.0333833972563,327.87899361527195,345.5797553403867
12,323.57390458587133,327.87899361527195,345.5797553403867,364.04875061096163
13,336.66676702044276,343.1396826348668,364.04875061096163,382.97124152211745
14,355.6116924593849,360.9508707707905,382.97124152211745,397.60924384544103
15,376.26219419429077,376.26219419429077,397.60924384544103,415.19551364693183
16,411.5552356976231,411.5552356976231,421.0180968883483,439.2599676034654
17,442.1285840610704,442.1285840610704,445.8743179828973,462.21265733901777
18,493.58698808912527,493.58698808912527,509.8374557769244,534.5372228853358
19,508.8966574092904,509.8374557769244,534.5372228853358,552.0667176338346
20,542.645032252176,542.645032252176,552.0667176338346,567.4161051632099
21,588.4961832304073,588.4961832304073,597.1467034441732,611.9775883386435
22,644.2239049459231,644.2239049459231,644.5315792594769,664.4595796341994
23,694.7608016799088,694.7608016799088,700.1171956079882,714.1885444602732
24,741.2413780360273,741.2413780360273,742.9405490538442,754.9080105929359
25,751.7038227629524,751.7038227629524,764.2681270962192,781.1905344178963
26,802.6816235373396,802.6816235373396,805.2263309322543,817.2060236394781
27,851.3878091514308,851.3878091514308,867.1919548839421,886.9135987553798
28,902.4600500909569,902.4600500909569,910.2064895523592,929.2072321220768
29,947.982947283305,947.982947283305,952.7001617583569,967.2434130567083
30,998.7473484355105,998.7473484355105,1012.9599301900531,1025.918597981451
31,1043.3907401961142,1043.3907401961142,1048.6827263728967,1066.532654995552
32,1076.114583962108,1076.114583962108,1084.9872178758287,1101.530260174294
33,1090.3156069679176,1090.3156069679176,1101.530260174294,1116.577498095379
34,1144.5747773271737,1144.5747773271737,1145.9745594399408,1164.6768479216146
35,1165.8193866076956,1165.8193866076956,1166.5823387414644,1182.5222624965845
36,1217.670239889526,1217.670239889526,1250.2742630870573,1268.9623384097717
37,1250.6526674222996,1250.6526674222996,1297.771878591998,1314.8158068408527
38,1303.5119354915958,1303.5119354915958,1314.8158068408527,1333.3819398423313
39,1317.7379851111837,1317.7379851111837,1344.1065389722698,1356.8540692138736
40,1350.676044798625,1350.676044798625,1356.8540692138736,1376.8589542452557
41,1396.867337361846,1396.867337361846,1412.5015603428549,1427.1815453415913
42,1451.2280272883593,1451.2280272883593,1458.852539037174,1474.8178425635876
43,1470.669294242533,1470.669294242533,1478.3289756093398,1496.733609543287
44,1499.2090119463455,1499.2090119463455,1510.2684936788464,1525.8180372080658
45,1535.9017424509332,1535.9017424509332,1536.0443882139978,1552.320136467057
46,1581.7091838442022,1581.7091838442022,1593.9929108735623,1609.7953078311327
47,1615.4476768602983,1615.4476768602983,1643.859573024404,1664.4693954339587
48,1668.869044418751,1668.869044418751,1671.4689404606756,1689.9341990555574
49,1688.1923125745466,1688.1923125745466,1704.2055006316343,1726.5783837485387
50,1720.6822630874221,1720.6822630874221,1733.3098859765125,1750.0346493339694
51,1763.4639984422085,1763.4639984422085,1770.8426266931183,1789.3920652599954
52,1809.1850549885687,1809.1850549885687,1822.6009030406697,1838.869324233855
53,1862.8507512812823,1862.8507512812823,1876.1307451617588,1892.7667358581793
54,1876.6482853093296,1876.6482853093296,1893.1978298782622,1905.9468643146668
55,1929.0416694674186,1929.0416694674186,1937.1235943685635,1956.1404393076994
56,1967.5056781262338,1967.5056781262338,1973.008311185554,1989.9246409941416
57,2022.6803133278386,2022.6803133278386,2043.5175115211625,2054.926218170756
58,2059.164426585544,2059.164426585544,2096.0080122430336,2110.393203372188
59,2103.928860161911,2103.928860161911,2110.393203372188,2126.109766133221
60,2158.219476872156,2158.219476872156,2163.812617686762,2182.471430220835
61,2206.998760073699,2206.998760073699,2209.097812372016,2218.265235171167
62,2252.396496811755,2252.396496811755,2256.589806492969,2272.975198674088
63,2280.1493490642074,2280.1493490642074,2307.885282440285,2323.540528260744
64,2305.3494516791006,2307.885282440285,2323.540528260744,2342.5843585270145
65,2353.134592826714,2353.134592826714,2368.0251522316785,2380.338837922805
66,2393.6816918053337,2393.6816918053337,2408.1759438506847,2421.5288186733574
67,2411.142316244351,2411.142316244351,2421.5288186733574,2442.3716368000605
68,2456.305295249314,2456.305295249314,2456.5817409643796,2474.4447780073233
69,2494.5101942065294,2494.5101942065294,2500.732291016524,2521.583251438458
70,2537.6168339261094,2537.6168339261094,2544.1249752822755,2559.1005470954665
71,2550.080425044488,2550.080425044488,2572.533964404068,2589.086068115939
72,2572.9232439453504,2572.9232439453504,2589.086068115939,2606.718748636155
73,2618.062083073987,2618.062083073987,2620.32431386683,2637.4165442945946
74,2642.488615042219,2642.488615042219,2643.128277638525,2657.041483751736
75,2676.3976433575826,2676.3976433575826,2688.8328941160084,2705.9619910102583
76,2708.1523812326923,2708.1523812326923,2715.449344613445,2729.1765350303
77,2755.5345625727396,2755.5345625727396,2788.390964758692,2806.06160128969
78,2798.462100283783,2798.462100283783,2831.7959756428477,2849.6329232163307
79,2821.280236374076,2831.7959756428477,2859.5925157824995,2876.3255235390507
80,2832.779112158011,2859.5925157824995,2876.3255235390507,2895.2403641709852
81,2849.8010670421245,2863.530339387042,2895.2403641709852,2912.918102180382
82,2862.303017964441,2865.181532075416,2912.918102180382,2927.613468178278
83,2905.201275065894,2905.201275065894,2927.613468178278,2941.8227726610426
84,2914.7674687468343,2914.7674687468343,2941.8227726610426,2961.664555107739
85,2936.740909167689,2936.740909167689,2961.664555107739,2974.439108364418
86,2964.1196505264543,2964.1196505264543,2974.439108364418,2992.472593708878
87,2983.7189541712833,2983.7189541712833,2992.472593708878,3007.150877289879
88,2996.12523408061,2996.12523408061,3007.150877289879,3016.517511291184
89,3017.609521828511,3017.609521828511,3025.17911799646,3038.123767220499
90,3026.8410570895303,3026.8410570895303,3038.123767220499,3052.4878809745023
91,3081.1653062317605,3081.1653062317605,3087.6362229148544,3104.552117104191
92,3130.977670535024,3130.977670535024,3139.2357178592843,3153.4326879647183
93,3164.0813629121026,3164.0813629121026,3164.8485743062,3182.272197922452
94,3183.7834648527946,3183.7834648527946,3195.338692339021,3209.4922186909835
95,3197.193780497937,3197.193780497937,3209.4922186909835,3227.3504635456056
96,3215.460156170301,3215.460156170301,3239.0892444994834,3258.02619968735
97,3261.591797309432,3261.591797309432,3274.5849113911204,3291.011065085556
98,3314.4889732344764,3314.4889732344764,3317.2790661551485,3333.532532520588
99,3354.8651178014056,3354.8651178014056,3376.31180154027,3392.3345943808813
100,3387.6555106105925,3387.6555106105925,3399.711121133425,3413.784191805759
101,3401.4638016257272,3401.4638016257272,3427.207059097073,3445.5847471500088
102,3456.7878363365485,3456.7878363365485,3457.4880038911597,3478.128487006391
103,3467.4683866559635,3467.4683866559635,3478.128487006391,3500.179311745925
104,3492.856433788578,3492.856433788578,3500.179311745925,3521.4807452782625
105,3525.1622858648348,3525.1622858648348,3578.113547975223,3597.926360677316
106,3541.4061607802287,3578.113547975223,3597.926360677316,3613.151633267105
107,3560.217576105992,3587.6072024453174,3613.151633267105,3628.5463200640206
108,3578.268704387531,3607.125206565479,3639.6383489578498,3656.226760734456
109,3610.8185371723944,3639.6383489578498,3677.5589949338255,3694.3702538506004
110,3649.714729696833,3677.5589949338255,3694.3702538506004,3711.8530579537605
111,3701.094754474252,3701.094754474252,3711.8530579537605,3730.573506781664
112,3722.1430498743957,3722.1430498743957,3744.8462177498373,3762.6877042686287
113,3742.0046372816664,3744.8462177498373,3762.6877042686287,3779.2923957916923
114,3754.864700601214,3754.864700601214,3779.2923957916923,3798.1411300727077
115,3769.713081323936,3769.713081323936,3816.6474554533534,3828.968688956695
116,3780.7504365229834,3816.6474554533534,3828.968688956695,3848.6577116065014
117,3830.414543365847,3830.414543365847,3848.6577116065014,3866.6875003330465
118,3839.761218157756,3844.507672258451,3880.96969927865,3900.008538571513
119,3873.6033341401853,3880.96969927865,3903.4153932760732,3915.6146366032576
120,3925.8266282711115,3925.8266282711115,3953.0963449637725,3974.4058608840205
121,3939.942188695554,3953.0963449637725,3974.4058608840205,3993.3965972628257
122,3989.2802315695453,3989.2802315695453,3993.3965972628257,4009.6853122540583
123,4021.262422801911,4021.262422801911,4033.649222237566,4046.6442621228516
124,4047.47645611359,4047.47645611359,4077.8897560641385,4091.321252001472
125,4102.360088186585,4102.360088186585,4103.9338889548435,4120.576766593408
126,4147.838873963612,4147.838873963612,4151.876139802914,4168.534664866277
127,4173.1992604939815,4173.1992604939815,4186.30702378684,4200.387550268194
128,4223.609157471672,4223.609157471672,4228.24084361592,4247.4588616757765
129,4235.411308322754,4235.411308322754,4247.4588616757765,4258.653915428261
130,4279.972559133596,4279.972559133596,4300.830253755631,4320.199062112414
131,4314.74736635263,4314.74736635263,4338.925088875619,4356.192875033421
132,4365.0185020620565,4365.0185020620565,4374.768523848916,4394.592540232885
133,4395.755128680001,4395.755128680001,4407.657469549713,4419.691066204133
134,4433.88752538476,4433.88752538476,4445.491111600763,4463.825538178143
135,4468.095749681089,4468.095749681089,4478.8484752158865,4494.754546991409
136,4515.180622393994,4515.180622393994,4530.305094037513,4551.152462454583
137,4538.671182602963,4538.671182602963,4551.152462454583,4562.18678208833
138,4588.764358060853,4588.764358060853,4592.775816306959,4610.008557455261
139,4614.246093070091,4614.246093070091,4634.5236836660015,4652.711376542688
140,4658.109783378959,4658.109783378959,4660.881702039809,4677.754836522933
141,4687.5374547189795,4687.5374547189795,4734.453548096317,4753.469666866846
142,4743.311586488615,4743.311586488615,4755.77508273648,4767.565209402308
143,4788.582477780279,4788.582477780279,4794.390440604797,4812.855317298568
144,4809.987398340526,4809.987398340526,4813.4914051807045,4822.412260120942
145,4826.2760018280105,4826.2760018280105,4867.806420145516,4882.479819973623
146,4851.994147707844,4867.806420145516,4882.479819973623,4894.679887491312
147,4889.527998995169,4889.527998995169,4894.679887491312,4910.828348662091
148,4905.426269405129,4905.426269405129,4910.828348662091,4924.661876723148
149,4922.659567856774,4922.659567856774,4947.24752169904,4959.4362752105535
150,4954.878026177239,4954.878026177239,4959.4362752105535,4971.185581793911
151,4979.916670242158,4979.916670242158,4998.484029513787,5013.802638010036
152,5000.305661158555,5000.305661158555,5013.802638010036,5027.308142725379
153,5044.054556810035,5044.054556810035,5051.429600855924,5062.811588145372
154,5099.092511537649,5099.092511537649,5100.425124136565,5114.942932436627
155,5128.364070885988,5128.364070885988,5138.056671848744,5147.01686243804
156,5142.686367503803,5142.686367503803,5147.01686243804,5162.526078479745
157,5173.309676547707,5173.309676547707,5175.870287662595,5194.210594728289
158,5211.617087726413,5211.617087726413,5222.468453563973,5237.861916304163
159,5253.388284581768,5253.388284581768,5264.25788302946,5278.648464325909
160,5296.9203311396805,5296.9203311396805,5302.788765370129,5312.8120376200295
161,5310.371228176373,5310.371228176373,5316.067914422737,5335.719588454259
162,5350.289523283829,5350.289523283829,5350.841054072137,5367.9938643878695
163,5396.528164053889,5396.528164053889,5401.580359645503,5416.642608527662
164,5422.966288773866,5422.966288773866,5424.578596904629,5441.344703320624
165,5464.175911142221,5464.175911142221,5469.630642731181,5482.920447139893
166,5514.886005373537,5514.886005373537,5517.054928718387,5529.9102990332985
167,5569.776535139192,5569.776535139192,5606.023139875407,5624.219869149699
168,5582.350560119255,5606.023139875407,5638.067460981765,5653.8372375113295
169,5630.997763214433,5638.067460981765,5653.8372375113295,5668.444724572201
170,5659.1873628352305,5659.1873628352305,5668.444724572201,5686.8143910870895
171,5704.109637100315,5704.109637100315,5704.823969320103,5714.100091501435
172,5728.825954675633,5728.825954675633,5735.970084966682,5752.0042656956175
173,5751.471665623651,5751.471665623651,5753.943214642045,5771.4913300332155
174,5806.169153211329,5806.169153211329,5830.714776618956,5844.345362594741
175,5820.2454452685015,5830.714776618956,5844.345362594741,5865.830097570545
176,5849.107957635345,5849.107957635345,5883.590693438437,5898.660771736772
177,5867.789231674103,5883.590693438437,5898.660771736772,5917.284542630031
178,5902.941915009551,5902.941915009551,5917.284542630031,5932.716643312481
179,5950.242671708747,5950.242671708747,5959.902522823938,5980.621923815848
180,5965.3155456837985,5965.3155456837985,5980.621923815848,5999.176287290638
181,5990.367177686337,5990.367177686337,6000.952895375608,6018.169414304168
182,6008.0730182522675,6008.0730182522675,6018.169414304168,6028.7691203192735
183,6054.563034882831,6054.563034882831,6073.495155469014,6089.473929854747
184,6105.247830955005,6105.247830955005,6111.599025826454,6124.124736448574
185,6143.649054977065,6143.649054977065,6144.980231839405,6160.41832385222
186,6186.537542916026,6186.537542916026,6190.027047392375,6207.247315403854
187,6200.593676017363,6200.593676017363,6207.247315403854,6225.721116801721
188,6211.733309035663,6211.733309035663,6225.918709967702,6239.638560173482
189,6263.38958225272,6263.38958225272,6274.093936697734,6291.45897614587
190,6310.311246913197,6310.311246913197,6318.546031412888,6332.986550728321
191,6345.501417258845,6345.501417258845,6357.869938600628,6373.486990723328
192,6387.7166626978415,6387.7166626978415,6387.93026782145,6401.104962568872
193,6396.027242537203,6396.027242537203,6410.580323163871,6427.509811052683
194,6435.597218618098,6435.597218618098,6436.442665240524,6452.795753300956
195,6443.527898794648,6443.527898794648,6454.292827951099,6468.3224897325845
196,6496.852166051925,6496.852166051925,6496.9167895347755,6513.809716022242
197,6537.774486893153,6537.774486893153,6539.082425124501,6554.759663929418
198,6572.910581733757,6572.910581733757,6584.306130228252,6596.560989345414
199,6605.024698778973,6605.024698778973,6606.212210717625,6623.855565532305
200,6630.661467333836,6630.661467333836,6657.329954141455,6677.145981974673
201,6654.833187598218,6657.329954141455,6677.145981974673,6693.515734182568
202,6696.123147557921,6696.123147557921,6719.41676898111,6740.248609556124
203,6708.572417584276,6719.41676898111,6747.8012712091995,6765.368270073183
204,6718.165616899433,6747.8012712091995,6772.512038298259,6788.946883121459
205,6750.264762674522,6772.512038298259,6788.946883121459,6805.166412014736
206,6790.861758409278,6790.861758409278,6805.166412014736,6818.655474093725
207,6843.821179414155,6843.821179414155,6853.415501764264,6873.454819465355
208,6866.255740975879,6866.255740975879,6873.454819465355,6893.03106129423
209,6889.492436050742,6889.492436050742,6894.271017167305,6902.420844997819
210,6923.791842910652,6923.791842910652,6928.610710514941,6946.181294465405
211,6972.144186187793,6972.144186187793,7018.310476891842,7033.463142606235
212,7001.791043990861,7018.310476891842,7033.463142606235,7048.556165960147
213,7048.907585689951,7048.907585689951,7052.771815232776,7068.068382512198
214,7068.652211892626,7068.652211892626,7075.523939670985,7094.281800949306
215,7121.412715286063,7121.412715286063,7123.26977169786,7140.166910908596
216,7148.932151299556,7148.932151299556,7153.878100315556,7169.510167256427
217,7163.992433676542,7163.992433676542,7169.510167256427,7184.916507822804
218,7193.028933893963,7193.028933893963,7219.7141585297395,7235.240615949671
219,7242.556482007536,7242.556482007536,7251.302285497746,7264.563272013299
220,7277.437629057959,7277.437629057959,7280.36596658425,7297.16055409412
221,7327.183340078166,7327.183340078166,7334.031335563483,7346.110273589404
222,7371.058131213606,7371.058131213606,7371.49830920351,7383.548119325324
223,7390.335783093853,7390.335783093853,7393.245428475559,7414.643553903591
224,7425.67472833332,7425.67472833332,7429.742451443052,7443.991991552239
225,7459.800946046251,7459.800946046251,7476.386856661417,7495.339005135003
226,7502.344923436196,7502.344923436196,7528.350380736715,7544.690458002763
227,7530.148702278084,7530.148702278084,7544.690458002763,7560.6997365461275
228,7548.037964331809,7548.037964331809,7560.6997365461275,7572.208283209255
229,7587.704907903373,7587.704907903373,7588.6656828557625,7609.0503883913925
230,7619.062727189036,7619.062727189036,7628.445051410716,7640.04852894306
231,7645.997277561364,7645.997277561364,7654.5158417024495,7674.908039444108
232,7687.714971687453,7687.714971687453,7709.851598090637,7727.681372086901
233,7743.068888280379,7743.068888280379,7793.665172745038,7808.280722962935
234,7780.562369643022,7793.665172745038,7808.280722962935,7823.938394136752
235,7811.941681231383,7811.941681231383,7823.938394136752,7843.74163558861
236,7841.483497172154,7841.483497172154,7861.733435327601,7882.361436709451
237,7852.2272638774375,7861.733435327601,7882.361436709451,7895.552150654463
238,7872.410436320086,7881.7926208165345,7897.060655765827,7906.265013425821
239,7902.397689074224,7902.397689074224,7914.536558943753,7934.909149792131
240,7953.779205945255,7953.779205945255,7955.277732015021,7971.115377282486
241,8008.915934905763,8008.915934905763,8016.964527518837,8029.728289194895
242,8046.294569381016,8046.294569381016,8056.309596223894,8073.226988250056
243,8072.537252398204,8072.537252398204,8078.303620811275,8094.582232402939
244,8095.677603302197,8095.677603302197,8112.027035771908,8125.13700786384
245,8129.3839096743695,8129.3839096743695,8134.467417861844,8152.584136229791
246,8182.546475324008,8182.546475324008,8188.824637394874,8204.680230773456
247,8202.80160291389,8202.80160291389,8206.052603119058,8223.503746337996
248,8233.554453963086,8233.554453963086,8252.590017393139,8268.998148084469
249,8254.209015856417,8254.209015856417,8268.998148084469,8287.795737664514
250,8277.98659359448,8277.98659359448,8287.795737664514,8306.274956238993
251,8296.384510162983,8296.384510162983,8326.204129506908,8343.673803515865
252,8339.203168277028,8339.203168277028,8346.300857399736,8361.671563223992
253,8385.621292870854,8385.621292870854,8398.896362469544,8413.199590764376
254,8398.791920509982,8398.896362469544,8413.199590764376,8425.535020683934
255,8452.764843846098,8452.764843846098,8461.248516650392,8474.613360257863
256,8505.973166315302,8505.973166315302,8540.708430565019,8553.994312343086
