# file created by code in harbour_fns_1896438.jl
# file created on 2026-03-09 at 15:39:58
# parameter: seed = 1896580
# parameter: T = 30000.0
# parameter: lower_interarrival = 7.8
# parameter: upper_interarrival = 55.8
# parameter: mean_process_times = [11.0, 16.0]
# parameter: max_queue = [9223372036854775807, 4]
# parameter: time_units = hours
id,arrival_time,start_service_times,start_service_times,completion_time
1,0.0,0.0,10.37406031134808,25.884476639030204
2,31.707985603376528,31.707985603376528,33.261283718777904,47.620748285682545
3,60.17475009577754,60.17475009577754,61.1819907680481,72.8648602634299
4,82.7889173248625,82.7889173248625,86.9027605842607,97.69587450747122
5,94.73877156074703,94.73877156074703,102.8671755259789,116.28976572965722
6,114.21211756055018,114.21211756055018,139.56564544858384,157.16312342802365
7,161.17171340703757,161.17171340703757,164.32815497519607,181.623530717889
8,185.25690805864298,185.25690805864298,197.6340732796375,213.5078534033878
9,239.1865485693434,239.1865485693434,242.38812441454832,258.12294193384184
10,265.4235338583371,265.4235338583371,277.50877153704306,289.29017874887177
11,281.60558716046336,281.60558716046336,289.29017874887177,309.90079314402453
12,320.38403719109573,320.38403719109573,329.6848790257516,345.1269596092173
13,341.2336594592209,341.2336594592209,355.1710100776857,374.8457226491408
14,360.2077302103591,360.2077302103591,374.8457226491408,391.56688268125197
15,376.0244885739211,376.0244885739211,433.98618669225283,447.84203461316383
16,425.4664553070928,433.98618669225283,447.84203461316383,463.50834229082454
17,446.00666360037366,446.00666360037366,463.50834229082454,477.80009777327916
18,470.3373597560534,470.3373597560534,477.80009777327916,492.8579448673155
19,503.07082719178277,503.07082719178277,503.33457457423594,522.3703814349517
20,522.8335520738369,522.8335520738369,539.6705122417873,557.4221166315648
21,533.7112907749413,539.6705122417873,557.4221166315648,572.358488492349
22,555.5725019206758,555.5725019206758,572.358488492349,589.0547219769165
23,569.7172072871062,569.7172072871062,589.0547219769165,601.5525587264398
24,603.0415973178681,603.0415973178681,604.5835954163891,617.893010553014
25,651.7532347323738,651.7532347323738,652.4971967996294,669.3861284866965
26,706.9206412944109,706.9206412944109,715.5764285668369,727.5351351616919
27,734.2570749411316,734.2570749411316,736.2378627970879,745.4660067710636
28,784.639586511842,784.639586511842,789.0046889557389,806.4343835224248
29,818.2988952585788,818.2988952585788,826.9552875507845,843.1432723123936
30,859.5589805370008,859.5589805370008,864.5092574164738,880.3130022357699
31,875.738019099352,875.738019099352,886.057219594193,912.8422238852474
32,890.9314647945646,890.9314647945646,912.8422238852474,924.4435336329772
33,937.7015982453867,937.7015982453867,938.7603011489364,952.70804567157
34,984.9694398353,984.9694398353,989.3081822789962,1012.090118128396
35,1036.5950539017683,1036.5950539017683,1058.1895045772062,1074.0109889612665
36,1067.406929037994,1067.406929037994,1074.0109889612665,1089.7189875673803
37,1098.6856896443132,1098.6856896443132,1101.5241221997649,1122.539387121427
38,1118.730040884875,1118.730040884875,1139.0356833493406,1157.4717772370457
39,1156.8714589967383,1156.8714589967383,1157.4717772370457,1175.7870137893658
40,1173.5918513905508,1173.5918513905508,1176.1314773648733,1186.3691499280515
41,1219.538587578605,1219.538587578605,1232.4750990537266,1245.0790876535455
42,1259.1621657838093,1259.1621657838093,1259.402260518045,1272.9713810388198
43,1301.933445510678,1301.933445510678,1301.9971215335659,1318.6337056013078
44,1311.268361548547,1311.268361548547,1318.6337056013078,1333.6577503153346
45,1361.6896666159732,1361.6896666159732,1372.8009513347608,1389.6718268206746
46,1416.7730922701048,1416.7730922701048,1425.1770842646367,1442.9991366175766
47,1458.7144803152787,1458.7144803152787,1470.6985357550627,1484.9181865846344
48,1499.5943979937738,1499.5943979937738,1524.4463597166525,1545.927936436324
49,1509.0945594890668,1524.4463597166525,1545.927936436324,1565.5914451210988
50,1557.6137236453949,1557.6137236453949,1565.5914451210988,1576.9621672150083
51,1597.233732013163,1597.233732013163,1609.7993237661713,1629.616647919619
52,1630.5314909416888,1630.5314909416888,1656.357047527146,1671.8968933336112
53,1669.4480570008086,1669.4480570008086,1697.5418329311992,1710.5740331891398
54,1700.9351583874063,1700.9351583874063,1724.1835860678486,1739.6347397491725
55,1729.5600232311117,1729.5600232311117,1739.6347397491725,1757.6399988025278
56,1749.9114038342027,1749.9114038342027,1776.1414840268296,1789.6971439144597
57,1786.2627021420499,1786.2627021420499,1789.6971439144597,1803.7098590764228
58,1818.1036508574887,1818.1036508574887,1821.4575496003588,1831.9884811874197
59,1837.7699020003736,1837.7699020003736,1838.2683673392462,1852.8409307313977
60,1865.1186216788074,1865.1186216788074,1871.446150893977,1885.3577271820886
61,1906.849930128552,1906.849930128552,1993.8106824382364,2010.489302530138
62,1924.8260179724398,1993.8106824382364,2010.489302530138,2029.6290403272387
63,1934.4977334225096,2003.2640829554648,2029.6290403272387,2050.7399086653295
64,1959.9268926296165,2019.0533575544725,2050.7399086653295,2074.9269156083974
65,2012.5041792972047,2046.9639560880385,2074.9269156083974,2087.9449917053785
66,2042.833091307419,2056.1070228998415,2087.9449917053785,2105.572422627482
67,2067.6546188970096,2067.6546188970096,2105.572422627482,2121.5779571277285
68,2090.835201877818,2090.835201877818,2121.5779571277285,2139.583808340149
69,2132.1270766426715,2132.1270766426715,2139.583808340149,2155.7038101031408
70,2181.901597810871,2181.901597810871,2190.0921369305497,2211.8532451604883
71,2223.393135423334,2223.393135423334,2229.4493973669946,2246.069780834796
72,2250.9769412504966,2250.9769412504966,2252.144758227112,2268.4799205059926
73,2261.42928427708,2261.42928427708,2268.4799205059926,2282.6094801671584
74,2291.435409020454,2291.435409020454,2294.126472512781,2309.25990679332
75,2309.216331799952,2309.216331799952,2329.3646996720495,2347.3435962833305
76,2333.1246236481893,2333.1246236481893,2347.3435962833305,2363.1230682040423
77,2356.387374979791,2356.387374979791,2364.410656541179,2377.135182774028
78,2380.553233149333,2380.553233149333,2382.4818486563913,2397.013139781126
79,2393.1776555766182,2393.1776555766182,2400.2368499926483,2417.262710511623
80,2437.6269736454155,2437.6269736454155,2464.1027929715906,2477.274950183613
81,2481.6734444789686,2481.6734444789686,2485.2139453438103,2505.8268053235934
82,2492.042833569231,2492.042833569231,2513.475720583144,2529.816992178582
83,2537.0302354053288,2537.0302354053288,2537.548607052642,2551.9889250513065
84,2590.1548108110633,2590.1548108110633,2594.238074991797,2609.0958960712724
85,2614.0488036616985,2614.0488036616985,2619.7296537920033,2630.4414810779317
86,2649.7601164324346,2649.7601164324346,2660.87073764743,2678.4817596009943
87,2675.032654453364,2675.032654453364,2682.40810708984,2698.5642260564687
88,2706.422541121399,2706.422541121399,2707.8130280443347,2727.9631234450503
89,2761.887125036757,2761.887125036757,2768.413208628445,2783.1063348014404
90,2796.395266885402,2796.395266885402,2815.0638052250724,2829.8406218540053
91,2808.2209544533544,2815.0638052250724,2829.8406218540053,2847.9730443817907
92,2859.649764113896,2859.649764113896,2872.8643008074896,2882.8741359835353
93,2869.597469367042,2872.8643008074896,2895.7552958763927,2904.159171209662
94,2906.890342886371,2906.890342886371,2916.0062619876003,2936.126625815783
95,2931.539598880653,2931.539598880653,2978.6532477939127,2992.06309301525
96,2951.361878210927,2978.6532477939127,2992.06309301525,3005.296623374331
97,2988.6693142080103,2988.6693142080103,3005.296623374331,3021.858688738425
98,3019.179502408404,3019.179502408404,3027.13533874831,3041.960712778017
99,3054.960329197543,3054.960329197543,3058.0603795959064,3069.3460900933223
100,3091.079061767299,3091.079061767299,3095.612403581656,3105.456337512592
101,3123.3423498609523,3123.3423498609523,3126.7272022372235,3139.619271389293
102,3156.773458034844,3156.773458034844,3169.660151179517,3185.5430557402965
103,3211.747494867531,3211.747494867531,3223.9210105390657,3241.6800707419534
104,3220.0160134297016,3223.9210105390657,3241.6800707419534,3254.964019388332
105,3237.096700221872,3237.096700221872,3254.964019388332,3273.2803417427895
106,3271.9817794100804,3271.9817794100804,3276.341240798378,3291.884231452579
107,3284.68306987501,3284.68306987501,3293.5450158818303,3305.7279908700557
108,3335.798578264257,3335.798578264257,3343.305225934985,3362.667787597755
109,3347.328089542976,3347.328089542976,3362.667787597755,3375.471106921521
110,3391.081924671919,3391.081924671919,3404.26217373796,3417.995102189056
111,3405.8601981085862,3405.8601981085862,3418.8329017599604,3433.5007174714437
112,3431.30527922213,3431.30527922213,3445.1982616277514,3465.2515682939875
113,3447.8935644981343,3447.8935644981343,3465.2515682939875,3477.9684089173265
114,3461.5585619597728,3461.5585619597728,3477.9684089173265,3497.9222916419217
115,3494.66639384106,3494.66639384106,3499.2456481188624,3516.494754113975
116,3531.5105788400456,3531.5105788400456,3533.058359497548,3552.19512346068
117,3583.5730238280944,3583.5730238280944,3589.635843710816,3605.2820092617803
118,3630.579955806519,3630.579955806519,3666.046982078499,3687.6000273362697
119,3679.2724988347636,3679.2724988347636,3687.6000273362697,3702.967725161807
120,3733.5534320339048,3733.5534320339048,3765.7287692442087,3780.255116427709
121,3752.0319189182037,3765.7287692442087,3780.255116427709,3797.6383156590955
122,3766.4830605506995,3771.3505727349275,3797.6383156590955,3814.9117583153784
123,3797.874916730601,3797.874916730601,3818.6390511256313,3828.927159274699
124,3845.6901522736703,3845.6901522736703,3886.7811819782237,3905.853227679486
125,3879.153204700784,3886.7811819782237,3920.435220965084,3936.373186519942
126,3927.9139418240775,3927.9139418240775,3936.373186519942,3948.057445232743
127,3968.0563779246313,3968.0563779246313,3985.243216218687,4000.397222696381
128,3986.6039655476343,3986.6039655476343,4000.397222696381,4017.4935233206065
129,4007.504852064284,4007.504852064284,4017.4935233206065,4028.899147873067
130,4048.289502270532,4048.289502270532,4054.243151707809,4074.941974849292
131,4072.663518789425,4072.663518789425,4074.941974849292,4089.630715852018
132,4111.892876095418,4111.892876095418,4150.9169231456035,4165.012004507618
133,4126.733062244477,4150.9169231456035,4171.68466860823,4188.624252671678
134,4164.234154346784,4171.68466860823,4188.624252671678,4205.086091815211
135,4219.246750457747,4219.246750457747,4221.194612575683,4237.853091804537
136,4266.229175633859,4266.229175633859,4266.930272788865,4277.297671011167
137,4296.707513430913,4296.707513430913,4297.735647402292,4308.451316463674
138,4322.23530214134,4322.23530214134,4339.824246632748,4354.892590726807
139,4340.90886096558,4340.90886096558,4354.892590726807,4377.051301873373
140,4365.988619311326,4365.988619311326,4377.051301873373,4395.496117984882
141,4407.840618195274,4407.840618195274,4411.796485523261,4429.44080487202
142,4458.397221176906,4458.397221176906,4463.937001659166,4475.7056376044575
143,4504.269773588971,4504.269773588971,4527.7289677011895,4547.98047555667
144,4535.661598955028,4535.661598955028,4547.98047555667,4562.053787986299
145,4548.334251954925,4548.334251954925,4562.053787986299,4577.989161676307
146,4599.039592216008,4599.039592216008,4605.2108204106635,4624.307950180266
147,4642.173140800515,4642.173140800515,4688.802010073798,4706.833501077454
148,4665.782604040438,4688.802010073798,4706.833501077454,4720.007889105418
149,4720.79575630095,4720.79575630095,4747.913314297875,4767.274388485998
150,4742.749859725158,4747.913314297875,4767.274388485998,4785.962080027001
151,4785.916350994715,4785.916350994715,4789.179676825426,4809.598605765483
152,4811.569639271551,4811.569639271551,4835.623118592276,4853.809181858062
153,4861.251249457728,4861.251249457728,4882.079043023828,4895.233813390466
154,4892.642394897572,4892.642394897572,4895.233813390466,4912.321708989987
155,4907.0593702195065,4907.0593702195065,4924.003074705907,4939.973490453732
156,4951.016057043489,4951.016057043489,4973.569572910901,4986.4427016833315
157,5005.041366191881,5005.041366191881,5007.367226758173,5028.567103786556
158,5058.963775739507,5058.963775739507,5085.193814109,5101.661553740351
159,5072.965384387414,5085.193814109,5101.661553740351,5119.03718000371
160,5092.393112375767,5093.762409180224,5119.03718000371,5140.351717012666
161,5118.304433168972,5118.304433168972,5140.351717012666,5158.012177042387
162,5142.359848344187,5142.359848344187,5158.012177042387,5177.621301646898
163,5178.253666824641,5178.253666824641,5195.031409170083,5212.634039873598
164,5216.03564271163,5216.03564271163,5222.282397320082,5235.943183028056
165,5238.020662714468,5238.020662714468,5248.101829516315,5263.762580248395
166,5284.866803722838,5284.866803722838,5285.759486242058,5300.085352379281
167,5302.7224212596175,5302.7224212596175,5302.898076862047,5316.043963249591
168,5321.75326891979,5321.75326891979,5361.404934948694,5376.246806349717
169,5358.990560652717,5361.404934948694,5376.246806349717,5389.878709466219
170,5374.224001577539,5374.224001577539,5389.878709466219,5401.179188153685
171,5401.348056815138,5401.348056815138,5404.7544318394785,5421.241987902127
172,5443.7019710351215,5443.7019710351215,5449.588808340692,5466.141204737879
173,5491.357200941077,5491.357200941077,5507.82352051779,5523.131019393073
174,5515.114283900931,5515.114283900931,5523.131019393073,5533.816373486124
175,5566.848845059278,5566.848845059278,5585.776442303172,5606.84135833212
176,5594.455419215869,5594.455419215869,5622.332068685365,5636.043655260067
177,5642.427883252401,5642.427883252401,5694.739915953791,5711.4107383660175
178,5685.486543517176,5694.739915953791,5711.4107383660175,5731.547400136637
179,5730.633339454271,5730.633339454271,5765.403439532593,5782.70810595622
180,5780.664379391679,5780.664379391679,5783.872023915493,5805.7936316214345
181,5812.125062062355,5812.125062062355,5828.941234868218,5848.479194780042
182,5867.659819960302,5867.659819960302,5870.214486089078,5886.412920050815
183,5901.740760176942,5901.740760176942,5904.586640749784,5918.282263321387
184,5911.466036334316,5911.466036334316,5925.009237519596,5943.354296500823
185,5940.879121190367,5940.879121190367,5943.354296500823,5959.167108866912
186,5953.706103481144,5953.706103481144,5973.8081866688235,5992.763557455615
187,5997.2990283442505,5997.2990283442505,6001.436211656398,6017.375712242327
188,6043.586477476699,6043.586477476699,6056.145887672113,6065.945041744729
189,6080.790631339444,6080.790631339444,6092.612288892104,6107.993845258528
190,6094.607711286976,6094.607711286976,6113.984501309062,6128.874235820212
191,6117.8458241465405,6117.8458241465405,6141.27765868079,6152.4659571983
192,6130.6985938537855,6141.27765868079,6167.15341825358,6176.846279401864
193,6155.625378698696,6167.15341825358,6180.047004962063,6194.83426994235
194,6163.880080560072,6180.047004962063,6194.83426994235,6206.999094327016
195,6198.974761917678,6198.974761917678,6206.999094327016,6219.096862271559
196,6234.688394317311,6234.688394317311,6238.895194240885,6251.681221041396
197,6285.57571165026,6285.57571165026,6304.533455918554,6319.424135144794
198,6339.462019585976,6339.462019585976,6370.833974667292,6388.7254005601535
199,6367.752271795688,6370.833974667292,6388.7254005601535,6406.905859246337
200,6377.178232342487,6379.624249908109,6406.905859246337,6426.490474129581
201,6424.054074185905,6424.054074185905,6426.532519859109,6442.513505086636
202,6441.550967433968,6441.550967433968,6444.5743828206405,6455.9883288113015
203,6484.031394524931,6484.031394524931,6495.053331727226,6509.497006659132
204,6534.091704706864,6534.091704706864,6536.194940315521,6554.442434715525
205,6589.313046556061,6589.313046556061,6593.741558385596,6611.259404864728
206,6615.731295373836,6615.731295373836,6644.9383418428415,6658.540345846927
207,6664.497911199973,6664.497911199973,6694.22927371746,6708.562193615378
208,6683.928225152987,6694.22927371746,6716.606701605954,6730.794097638084
209,6692.368896841566,6716.606701605954,6730.794097638084,6745.780487815353
210,6737.757150615647,6737.757150615647,6745.780487815353,6767.379965803425
211,6786.833828660378,6786.833828660378,6799.170604075554,6816.6994834583475
212,6804.370940431239,6804.370940431239,6816.6994834583475,6831.662922264756
213,6819.895079929196,6819.895079929196,6835.396936292419,6859.28263157442
214,6867.823710402059,6867.823710402059,6879.69720301538,6899.807344889079
215,6896.251520379292,6896.251520379292,6899.807344889079,6916.224769696544
216,6926.641533279579,6926.641533279579,6936.184595674074,6947.411247895754
217,6936.431871916239,6936.431871916239,6961.416769629238,6974.374148908501
218,6970.3210514269185,6970.3210514269185,7036.152691666454,7051.985659526316
219,7020.133388034356,7036.152691666454,7051.985659526316,7068.235492194464
220,7057.398449075264,7057.398449075264,7068.235492194464,7083.901081813949
221,7077.4056061139,7077.4056061139,7101.875697641417,7112.860792571385
222,7117.192269310208,7117.192269310208,7124.054873450463,7141.437889789039
223,7131.367076570308,7131.367076570308,7148.255960567137,7163.743218453222
224,7171.93551175672,7171.93551175672,7177.458567410904,7196.51658579977
225,7220.505625213596,7220.505625213596,7222.882710441338,7239.576321199035
226,7263.518826717767,7263.518826717767,7294.751434444324,7315.492500913208
227,7291.0673497453445,7294.751434444324,7322.070356379321,7335.918524912933
228,7321.300889186303,7322.070356379321,7335.918524912933,7352.400397980231
229,7333.523697270559,7333.523697270559,7352.400397980231,7368.09553012799
230,7383.1365023816,7383.1365023816,7383.6057075146755,7401.069920905251
231,7404.532224279495,7404.532224279495,7413.7775821269015,7428.677852333443
232,7441.10535107776,7441.10535107776,7467.806686616655,7479.730908212037
233,7453.246707723488,7467.806686616655,7479.730908212037,7490.590372005833
234,7507.583556088374,7507.583556088374,7511.831172101407,7521.91578589501
235,7529.919719907561,7529.919719907561,7533.59892196325,7546.303233896882
236,7567.687596780975,7567.687596780975,7593.128767412461,7608.374882404492
237,7612.671426050904,7612.671426050904,7616.8506122009585,7636.720654173611
238,7660.108577142401,7660.108577142401,7682.925142823797,7700.386641395827
239,7686.43480303091,7686.43480303091,7721.59101957823,7736.807336916775
240,7733.130543385605,7733.130543385605,7736.807336916775,7752.728439446714
241,7788.417481135991,7788.417481135991,7798.853491675977,7815.9749733536655
242,7834.350721174691,7834.350721174691,7895.788592641197,7916.733706238965
243,7887.597034131984,7895.788592641197,7916.733706238965,7934.594667341644
244,7935.479398246406,7935.479398246406,7938.9470560024965,7953.420900809821
245,7987.487467852483,7987.487467852483,7988.73496043169,8009.4576311557485
246,8004.854967060629,8004.854967060629,8010.514794191305,8026.997005165304
247,8038.634869539363,8038.634869539363,8044.921545421389,8060.155311880597
248,8051.64270792249,8051.64270792249,8061.15714817025,8074.470205678717
249,8097.735644670071,8097.735644670071,8108.734308938084,8125.293372640655
250,8128.686258917008,8128.686258917008,8140.627117324023,8155.186905315102
251,8154.251153720331,8154.251153720331,8156.025050284244,8176.43343652468
252,8187.561583000129,8187.561583000129,8188.208893130895,8204.436742424517
253,8232.269269093624,8232.269269093624,8246.961752629884,8261.937307941804
254,8270.060394601818,8270.060394601818,8281.611399940566,8296.699355548662
255,8303.05933747039,8303.05933747039,8318.79120400306,8336.33330613526
256,8328.575789819737,8328.575789819737,8336.33330613526,8356.123566846336
