# file created by code in harbour_fns_1896438.jl
# file created on 2026-03-09 at 15:39:50
# parameter: seed = 1896476
# parameter: T = 30000.0
# parameter: lower_interarrival = 7.8
# parameter: upper_interarrival = 55.8
# parameter: mean_process_times = [11.0, 16.0]
# parameter: max_queue = [9223372036854775807, 4]
# parameter: time_units = hours
id,arrival_time,start_service_times,start_service_times,completion_time
1,0.0,0.0,21.794052748059222,33.95670745884043
2,52.180216320447194,52.180216320447194,60.26169557108196,76.67774281619316
3,63.70819791198678,63.70819791198678,76.67774281619316,92.42677955815361
4,88.82883577419707,88.82883577419707,92.42677955815361,106.99203969436263
5,122.95069927367967,122.95069927367967,125.63674743744956,139.6684975424829
6,149.39485298347248,149.39485298347248,151.59644774218245,168.59644845010538
7,175.58449543332418,175.58449543332418,202.15760365789046,219.82308621026328
8,202.1445580590315,202.15760365789046,219.82308621026328,237.64588303548737
9,231.4106007335886,231.4106007335886,242.71795741264845,256.0975905365175
10,282.63282369297383,282.63282369297383,296.2777645956261,316.35647585341405
11,323.41622677511555,323.41622677511555,333.5064627159585,350.8365636794643
12,353.0345416262482,353.0345416262482,356.3077626286414,369.30550710154296
13,380.1052648912908,380.1052648912908,391.0461931725279,407.41438896798996
14,433.9224345230944,433.9224345230944,448.0475396601203,464.00014470947576
15,477.99565880367396,477.99565880367396,487.53368696034215,504.9254292695255
16,524.1956504324195,524.1956504324195,539.7975135467833,559.1467263258321
17,564.3143104586261,564.3143104586261,587.6102160396348,609.7633669741647
18,587.4423085365291,587.6102160396348,609.7633669741647,625.2917859449069
19,633.1287369407614,633.1287369407614,646.2336862886709,662.3258400469598
20,668.5364459806788,668.5364459806788,691.9764746736781,703.4004523985168
21,688.8334484120467,691.9764746736781,703.4004523985168,717.1373154710224
22,731.6783117855884,731.6783117855884,737.9127973867613,747.524333262072
23,782.0729308135701,782.0729308135701,791.0006709745186,810.1324870603181
24,815.3797759723619,815.3797759723619,841.3268014455467,858.0779747534941
25,862.6023570439224,862.6023570439224,882.4248374206479,895.9370127768259
26,872.5901381231495,882.4248374206479,895.9370127768259,911.0209377071434
27,921.8411945681144,921.8411945681144,931.4293413843988,951.0472836665008
28,968.3182152929479,968.3182152929479,968.4042077592843,987.3935121310574
29,1017.2534165168508,1017.2534165168508,1034.5334684023221,1044.8761090640078
30,1065.0846007162195,1065.0846007162195,1072.4885828923482,1089.80914478657
31,1100.0287464134485,1100.0287464134485,1124.855967533349,1141.1438641434058
32,1119.490472201567,1124.855967533349,1147.9006994401232,1163.232696141484
33,1142.7513173837096,1147.9006994401232,1163.232696141484,1175.836011729667
34,1193.375194585135,1193.375194585135,1217.4903542799987,1229.944720018497
35,1247.4599486891625,1247.4599486891625,1275.205316888649,1290.4344931106405
36,1294.2581811265027,1294.2581811265027,1296.6059990873475,1310.9091231195323
37,1348.2837625963039,1348.2837625963039,1360.6172422304585,1370.9756866017706
38,1384.9440686782289,1384.9440686782289,1385.4623792717064,1406.3007596938132
39,1429.1691296685065,1429.1691296685065,1435.261461151994,1450.6274745900248
40,1455.2702787237788,1455.2702787237788,1480.2180450367455,1495.1189703627697
41,1492.0945076165908,1492.0945076165908,1500.8442145445852,1517.0426851593706
42,1539.4505932835816,1539.4505932835816,1570.2520986311554,1587.5449264455672
43,1550.4591490037749,1570.2520986311554,1587.5449264455672,1602.5081597995143
44,1597.0572913921046,1597.0572913921046,1617.439811770984,1636.812567691764
45,1621.4914116919242,1621.4914116919242,1640.2943686876752,1652.8852948942247
46,1632.1435803500458,1640.2943686876752,1652.8852948942247,1667.1008078924478
47,1668.9368780236816,1668.9368780236816,1670.4396654142158,1686.1176282410747
48,1703.7077786024092,1703.7077786024092,1716.3318016366075,1735.4004902028705
49,1712.335908227912,1716.3318016366075,1735.4004902028705,1754.3922727046415
50,1728.420853421199,1728.420853421199,1754.3922727046415,1772.2979161033136
51,1744.8925454069167,1744.8925454069167,1786.8632955461578,1800.9145013471227
52,1766.2008607996759,1786.8632955461578,1831.5161611702192,1847.9902803769055
53,1818.5147010933633,1831.5161611702192,1877.0753994254426,1889.8280687102863
54,1863.4241315545632,1877.0753994254426,1906.3978618982815,1924.5123844442594
55,1877.296708482917,1906.3978618982815,1924.5123844442594,1943.1920175478322
56,1909.055975439618,1924.2814100891196,1945.4133450079905,1964.154707329493
57,1920.0178798138954,1945.4133450079905,1964.154707329493,1981.975222544226
58,1973.1629618477548,1973.1629618477548,1981.975222544226,1996.4662910878542
59,2004.2067462940347,2004.2067462940347,2013.2558543195983,2030.1137820807696
60,2040.479015902718,2040.479015902718,2051.5864502307095,2071.191025714421
61,2087.2192823462265,2087.2192823462265,2088.229590967434,2101.30625411007
62,2100.743128568658,2100.743128568658,2143.9757638070932,2160.307061803383
63,2144.122578960491,2144.122578960491,2160.307061803383,2175.3561726016214
64,2190.4909183300797,2190.4909183300797,2211.6185720807516,2225.3007341650905
65,2235.280968527709,2235.280968527709,2242.7137970031504,2265.701905809854
66,2257.6854930703676,2257.6854930703676,2265.701905809854,2280.0329535396604
67,2293.161070016611,2293.161070016611,2307.835616075858,2325.470209004886
68,2328.3830396985895,2328.3830396985895,2348.9394902216554,2366.9115094617664
69,2363.2342395014302,2363.2342395014302,2366.9115094617664,2384.2310399997523
70,2414.8025358814084,2414.8025358814084,2429.493365198972,2448.7479772868974
71,2432.801729060787,2432.801729060787,2448.7479772868974,2459.658870149651
72,2445.223600023593,2445.223600023593,2459.658870149651,2468.278499772315
73,2468.410969729705,2468.410969729705,2476.011257037322,2491.173512624926
74,2508.7328643710034,2508.7328643710034,2510.596492574612,2531.5863275763018
75,2554.262749498703,2554.262749498703,2569.834170070169,2588.0429119660407
76,2588.415254368015,2588.415254368015,2597.7779592438014,2613.422303972754
77,2632.1257761190423,2632.1257761190423,2653.347509463151,2669.2572613480525
78,2646.177446574318,2653.347509463151,2669.2572613480525,2687.1286217743555
79,2659.3954757725123,2659.3954757725123,2687.1286217743555,2695.895517053269
80,2675.3712855632753,2675.3712855632753,2704.3126955329694,2716.888386728152
81,2719.954455989956,2719.954455989956,2730.4355028842,2749.7784469080248
82,2765.3304808906155,2765.3304808906155,2769.4410327137975,2782.7078596517727
83,2782.339190254013,2782.339190254013,2784.4704738038063,2796.390241908034
84,2790.372954004738,2790.372954004738,2802.304263665116,2814.173643660032
85,2836.495251059523,2836.495251059523,2837.284610651466,2851.607632399022
86,2861.5824947436545,2861.5824947436545,2872.02805604955,2889.8879780162238
87,2885.017810449871,2885.017810449871,2894.3286249356515,2912.6782832617637
88,2932.437336587605,2932.437336587605,2943.258071118426,2958.4952647048963
89,2986.4280986243125,2986.4280986243125,2995.996665961706,3016.6965086848973
90,3035.374564832596,3035.374564832596,3036.977862277259,3054.2829016445403
91,3084.345882935014,3084.345882935014,3084.5627351386465,3098.697451906979
92,3122.8646698487196,3122.8646698487196,3127.243842542659,3141.5131934106257
93,3153.037651188667,3153.037651188667,3160.7655320822273,3177.9575355149136
94,3184.4196945512517,3184.4196945512517,3186.093983987136,3204.8146111907977
95,3234.743169799399,3234.743169799399,3243.3194987121087,3258.931732586583
96,3245.0111393602597,3245.0111393602597,3258.931732586583,3273.5263435621296
97,3263.7393094182266,3263.7393094182266,3273.5263435621296,3290.263316197311
98,3303.830586775917,3303.830586775917,3329.791200228683,3347.9099576606454
99,3317.3474794607273,3329.791200228683,3347.9099576606454,3367.336376815242
100,3371.2117445042236,3371.2117445042236,3383.2832183477826,3404.4327202936024
101,3384.5524033083616,3384.5524033083616,3404.4327202936024,3420.229629884752
102,3394.5077953940863,3394.5077953940863,3420.229629884752,3439.577410048333
103,3443.404598964156,3443.404598964156,3458.0236897799196,3478.030457760774
104,3486.1969678117803,3486.1969678117803,3498.136139633471,3514.8687811503673
105,3494.9623432235153,3498.136139633471,3514.8687811503673,3528.429590008378
106,3506.3837954410014,3508.310766737956,3528.429590008378,3538.9795046884765
107,3551.3389671758227,3551.3389671758227,3575.4858625528523,3599.9562239087113
108,3569.065587979797,3575.4858625528523,3599.9562239087113,3618.0183135308926
109,3580.952519431732,3581.2564780458197,3618.0183135308926,3631.772467159773
110,3619.8056297040953,3619.8056297040953,3631.772467159773,3648.402495455287
111,3640.542995522615,3640.542995522615,3650.4827228646286,3663.601801463957
112,3678.2590923106122,3678.2590923106122,3687.257105640478,3701.5263332782865
113,3713.2272358008986,3713.2272358008986,3723.32844944795,3741.792599063303
114,3722.470543073546,3723.32844944795,3741.792599063303,3757.351703627302
115,3758.913976724317,3758.913976724317,3764.5416415005275,3776.4894391297066
116,3790.5158451834623,3790.5158451834623,3805.0666558947405,3820.1406823017296
117,3799.275080165574,3805.0666558947405,3820.1406823017296,3827.458222454346
118,3846.3184453347194,3846.3184453347194,3861.487790728722,3880.479496724976
119,3883.210408314027,3883.210408314027,3911.9952768451217,3930.2335240543307
120,3910.446481855448,3911.9952768451217,3930.2335240543307,3944.1668516423056
121,3960.3298183822294,3960.3298183822294,3991.2015356396096,4006.968528219874
122,3989.908128785119,3991.2015356396096,4006.968528219874,4021.0996454972583
123,4019.209508689318,4019.209508689318,4040.1296512255212,4052.935849440521
124,4031.7515817924655,4040.1296512255212,4052.935849440521,4069.00228998183
125,4077.4432744752144,4077.4432744752144,4077.7941553528053,4100.470233518611
126,4097.963029157856,4097.963029157856,4134.589152212358,4148.669235917347
127,4109.312007652569,4134.589152212358,4148.669235917347,4162.426446758896
128,4141.45517440076,4141.45517440076,4162.426446758896,4177.106684729933
129,4193.825976208642,4193.825976208642,4197.025966854204,4214.6875990401495
130,4236.414839564276,4236.414839564276,4239.40539293886,4250.759181584267
131,4291.536854183844,4291.536854183844,4306.835967124411,4321.59664744954
132,4305.687036101437,4306.835967124411,4321.59664744954,4337.857808592326
133,4360.103785735343,4360.103785735343,4391.261596749346,4404.349604133884
134,4408.002796056711,4408.002796056711,4412.941388241294,4424.278523878315
135,4430.040190440712,4430.040190440712,4432.939503271255,4451.232431757773
136,4452.399048707564,4452.399048707564,4474.580132674314,4492.535401041133
137,4465.722677515458,4474.580132674314,4492.535401041133,4513.844946354311
138,4498.052469661147,4498.052469661147,4513.844946354311,4535.352836530218
139,4549.010584820713,4549.010584820713,4573.854504991213,4589.99645051937
140,4584.4182838671995,4584.4182838671995,4622.457122068199,4638.378166946131
141,4639.240800800443,4639.240800800443,4645.114651033485,4657.379603388364
142,4673.0367133933605,4673.0367133933605,4677.312836187512,4696.096757127223
143,4681.424535445479,4681.424535445479,4698.904035622495,4718.505290013534
144,4697.046497671035,4698.904035622495,4718.505290013534,4733.595102795957
145,4727.190349424043,4727.190349424043,4733.595102795957,4744.421472809177
146,4764.174202813433,4764.174202813433,4776.315503016503,4791.281300164249
147,4781.7007321428555,4781.7007321428555,4793.476672199132,4806.086059781947
148,4825.111527741871,4825.111527741871,4826.7644868254,4843.626335053572
149,4832.918696571663,4832.918696571663,4843.626335053572,4864.76560188795
150,4864.322067831014,4864.322067831014,4868.613560197249,4882.147838563811
151,4880.837345405704,4880.837345405704,4882.147838563811,4895.172684024622
152,4890.49161150975,4890.49161150975,4896.772275291755,4914.917231578402
153,4943.243879129885,4943.243879129885,4950.011803679399,4965.427286732446
154,4984.0204930302925,4984.0204930302925,4999.296182140495,5017.5021017185845
155,5018.132869702498,5018.132869702498,5049.0475013759715,5065.080197539039
156,5073.170939391841,5073.170939391841,5104.17593590806,5115.872104295302
157,5104.277641671524,5104.277641671524,5122.865682990321,5132.314277118146
158,5123.973287130636,5123.973287130636,5132.314277118146,5148.580096319429
159,5178.950053012905,5178.950053012905,5179.91423466772,5203.678242395958
160,5215.406624962322,5215.406624962322,5231.175311417268,5242.652263200736
161,5259.938624760615,5259.938624760615,5260.026109853662,5273.618301533237
162,5306.728792957136,5306.728792957136,5316.29286576428,5332.695077597823
163,5352.185266324552,5352.185266324552,5374.708993142257,5395.318686983977
164,5379.339218786923,5379.339218786923,5399.504012117744,5412.856035803569
165,5432.484593977425,5432.484593977425,5453.0118849369865,5474.2330498164965
166,5453.76383340997,5453.76383340997,5474.2330498164965,5491.803909490787
167,5491.489221757653,5491.489221757653,5499.337768686383,5515.783590247746
168,5525.740635572468,5525.740635572468,5533.186558718971,5547.391949983105
169,5539.382334254608,5539.382334254608,5555.240941172055,5568.965346653805
170,5547.794555197097,5555.240941172055,5580.563679752109,5593.658070830564
171,5590.323242232695,5590.323242232695,5617.862048435662,5631.500783881707
172,5609.575715165909,5617.862048435662,5631.500783881707,5643.872638349641
173,5641.432295705047,5641.432295705047,5674.387546367815,5692.645585838167
174,5653.306903892511,5674.387546367815,5692.645585838167,5706.619695708222
175,5692.21415101232,5692.21415101232,5706.654045742878,5716.918674767787
176,5742.140246946263,5742.140246946263,5750.5004967353025,5769.955428121357
177,5754.842119763853,5754.842119763853,5771.693455782159,5790.582459939174
178,5800.34471072261,5800.34471072261,5812.228014911329,5830.3622283601335
179,5808.228061078103,5812.228014911329,5830.3622283601335,5843.184997731401
180,5824.105576063621,5824.105576063621,5843.952280331496,5861.258594582213
181,5876.0126033872275,5876.0126033872275,5929.443170111539,5946.748727843233
182,5885.628098689679,5929.443170111539,5953.819311244233,5969.922915822288
183,5925.529178979656,5953.819311244233,5969.922915822288,5986.271928424525
184,5959.987217234297,5959.987217234297,5986.271928424525,6000.384495171364
185,5968.908940315393,5968.908940315393,6000.384495171364,6019.371800213634
186,6007.604806253668,6007.604806253668,6019.371800213634,6034.158499592919
187,6035.536236901132,6035.536236901132,6046.816192264522,6058.653319196595
188,6059.500335772293,6059.500335772293,6061.212053826948,6078.958325693994
189,6100.4812074740275,6100.4812074740275,6101.837672198627,6114.297110173498
190,6138.749437538453,6138.749437538453,6150.017978902256,6168.413244547171
191,6146.811129901184,6150.017978902256,6168.413244547171,6179.662086434648
192,6193.955406294728,6193.955406294728,6205.29221414718,6221.891230475457
193,6211.12519511589,6211.12519511589,6221.891230475457,6240.431370618232
194,6251.900328982099,6251.900328982099,6270.993419832348,6288.024407337238
195,6260.281195847482,6270.993419832348,6288.024407337238,6306.741040505852
196,6292.496036406626,6292.496036406626,6310.328601889655,6329.985655726998
197,6344.093674205176,6344.093674205176,6344.817377577419,6366.514165900153
198,6382.284950536515,6382.284950536515,6404.150629760168,6421.045497450241
199,6411.458933492707,6411.458933492707,6421.045497450241,6436.073814973912
200,6446.684487097186,6446.684487097186,6458.6729373421085,6472.797241309731
201,6473.958718213647,6473.958718213647,6474.949883814775,6491.784072345393
202,6511.012730443947,6511.012730443947,6511.54574902713,6530.5755351564885
203,6538.558450921125,6538.558450921125,6539.301028902433,6554.780547779101
204,6546.503207947818,6546.503207947818,6558.982593275674,6576.847641602456
205,6577.7837025531335,6577.7837025531335,6589.019462943401,6606.06351014557
206,6591.376292479853,6591.376292479853,6614.907278880929,6631.579947416101
207,6623.581191696407,6623.581191696407,6631.579947416101,6652.242263533336
208,6647.945280868507,6647.945280868507,6652.242263533336,6667.735706838283
209,6701.424321599917,6701.424321599917,6754.4286431806295,6771.253913502819
210,6740.548644322476,6754.4286431806295,6794.752731879844,6816.889358214992
211,6783.04654508367,6794.752731879844,6816.889358214992,6830.9670171072985
212,6820.205475878444,6820.205475878444,6835.06321683487,6853.0147023967675
213,6844.911053505277,6844.911053505277,6853.0147023967675,6862.052017183198
214,6897.101608295907,6897.101608295907,6900.958977447422,6922.853071965537
215,6935.464912332551,6935.464912332551,6944.119727772074,6960.154878221474
216,6976.966039095314,6976.966039095314,6987.427604066066,7002.643781237579
217,7008.670109123502,7008.670109123502,7019.305385533191,7033.533809856077
218,7037.964111221965,7037.964111221965,7044.152666179117,7059.104603738281
219,7056.785822378219,7056.785822378219,7059.104603738281,7072.42939885532
220,7089.34494389466,7089.34494389466,7103.829128152952,7121.54906307205
221,7129.94079314061,7129.94079314061,7147.947734274497,7164.097537480259
222,7179.719484407764,7179.719484407764,7181.015513722364,7198.562135117947
223,7230.544304115284,7230.544304115284,7243.21913458602,7266.190818468579
224,7262.7311040124805,7262.7311040124805,7277.867295945411,7294.05637149042
225,7303.972060424037,7303.972060424037,7304.066484784704,7320.828606410564
226,7314.326028536894,7314.326028536894,7320.828606410564,7333.189751586973
227,7352.921593521004,7352.921593521004,7355.565471183569,7368.8672288956295
228,7365.535955982029,7365.535955982029,7417.938117393673,7428.645913469523
229,7400.113744259349,7417.938117393673,7430.288121558916,7446.4601134488585
230,7415.649809279233,7430.288121558916,7446.4601134488585,7469.234497237041
231,7435.718512244612,7435.718512244612,7469.234497237041,7483.258404352207
232,7447.585988055985,7447.585988055985,7483.258404352207,7497.852791865458
233,7463.0883804797595,7465.980200001292,7497.852791865458,7514.680408527305
234,7496.586898988854,7496.586898988854,7514.680408527305,7529.449289856873
235,7540.202477417928,7540.202477417928,7545.636123477199,7564.856230076837
236,7558.049222901167,7558.049222901167,7574.33331192839,7589.952346913929
237,7583.192516281674,7583.192516281674,7615.525214515153,7632.385617686308
238,7620.747959582278,7620.747959582278,7632.385617686308,7643.430231395695
239,7628.837983391217,7628.837983391217,7643.430231395695,7663.156230432754
240,7672.039253253203,7672.039253253203,7680.647975262456,7699.197536723804
241,7688.363377873884,7688.363377873884,7699.197536723804,7716.895357962708
242,7738.466632940014,7738.466632940014,7741.1397043749685,7751.85968444832
243,7774.350758616878,7774.350758616878,7782.256130082921,7796.421344769438
244,7784.410653945348,7784.410653945348,7796.421344769438,7816.211409746697
245,7819.271597851082,7819.271597851082,7823.342676015162,7837.309399314174
246,7832.705361938291,7832.705361938291,7837.309399314174,7852.767954626392
247,7860.535840295405,7860.535840295405,7872.577874825189,7892.032518431275
248,7901.088320814888,7901.088320814888,7905.131679577699,7921.00082988451
249,7954.690580998135,7954.690580998135,7969.779612994953,7985.429243790756
250,8003.301015163228,8003.301015163228,8013.446411353024,8034.6184104103095
251,8020.760981268379,8020.760981268379,8034.6184104103095,8051.14543802931
252,8056.466682468428,8056.466682468428,8072.466920975911,8087.213668139795
253,8092.305867188027,8092.305867188027,8097.848304019376,8115.04552890722
254,8123.5653868571935,8123.5653868571935,8130.780167807214,8147.620124521544
255,8143.969563735033,8143.969563735033,8149.220729847546,8169.049669773359
256,8176.941745388685,8176.941745388685,8196.731302131842,8218.223115154791
