# file created by code in harbour_fns_1896438.jl
# file created on 2026-03-09 at 15:39:58
# parameter: seed = 1896582
# parameter: T = 30000.0
# parameter: lower_interarrival = 7.8
# parameter: upper_interarrival = 55.8
# parameter: mean_process_times = [11.0, 16.0]
# parameter: max_queue = [9223372036854775807, 4]
# parameter: time_units = hours
id,arrival_time,start_service_times,start_service_times,completion_time
1,0.0,0.0,3.6310261126776227,19.052582582684025
2,21.160442704971327,21.160442704971327,24.28704072924295,39.01256176358204
3,31.49141456085044,31.49141456085044,39.01256176358204,50.624212190907414
4,79.90353427775992,79.90353427775992,87.13710502768988,100.27620450931931
5,105.27315756626756,105.27315756626756,156.3021141528905,173.04066483179207
6,143.99706495626322,156.3021141528905,173.04066483179207,186.76255982556424
7,163.8293710771895,167.16425771413884,186.76255982556424,208.91596551976434
8,174.7133800317262,174.7133800317262,208.91596551976434,222.8303960401214
9,216.06191537124565,216.06191537124565,227.11778262810225,248.51339020319324
10,265.81841532042415,265.81841532042415,271.3122797529649,288.29901541851433
11,298.1427503575501,298.1427503575501,302.76432150942003,311.24955474103723
12,327.86658760317283,327.86658760317283,328.28730903170145,349.21379411981394
13,365.2119579290496,365.2119579290496,372.87832647195927,388.0474085964803
14,394.5928921632519,394.5928921632519,424.37252519661206,439.79857314143516
15,434.78933387456357,434.78933387456357,454.36369839811044,471.9977664914413
16,449.2167232058973,454.36369839811044,471.9977664914413,486.27190593768626
17,493.594330165049,493.594330165049,544.77601166246,562.8395622246994
18,546.1979040108544,546.1979040108544,568.8420485010867,582.9587705494766
19,562.9758651376951,568.8420485010867,582.9587705494766,603.0166017805486
20,593.2190854473824,593.2190854473824,603.0166017805486,622.6773650228301
21,621.4541459998278,621.4541459998278,642.8936798722714,663.5677693614178
22,671.7993821053493,671.7993821053493,713.1656940088621,727.4918813117148
23,714.9591305968518,714.9591305968518,727.4918813117148,743.524494989135
24,755.3723898049462,755.3723898049462,775.8456095569547,791.1389745757568
25,797.0892864289954,797.0892864289954,814.0070447336935,831.0976898303691
26,807.7162153469295,814.0070447336935,831.0976898303691,852.3456563035706
27,851.3690960213563,851.3690960213563,876.7653631549451,891.3078207093655
28,881.4310604712773,881.4310604712773,891.3078207093655,907.2822312146819
29,934.6914541268593,934.6914541268593,935.1053408093377,951.3959944909669
30,982.6899018325623,982.6899018325623,997.439524828504,1013.1292943900614
31,1027.2395889846673,1027.2395889846673,1031.0345600095284,1044.1341983146879
32,1077.977380414016,1077.977380414016,1090.178395713278,1106.5714186076577
33,1128.0806939970591,1128.0806939970591,1147.6638948847196,1164.4885598735211
34,1171.201022329496,1171.201022329496,1176.197116985463,1193.2724586692475
35,1207.1648367127482,1207.1648367127482,1208.2643744751565,1229.2933049892845
36,1221.296903659905,1221.296903659905,1230.685952131411,1248.614637447526
37,1270.6620993047497,1270.6620993047497,1275.9839821375729,1286.5777716474477
38,1312.3979028071374,1312.3979028071374,1324.411868352,1336.9827310240469
39,1353.8058219856111,1353.8058219856111,1356.5375659116808,1376.1693154646398
40,1377.7215816360845,1377.7215816360845,1401.5466017981498,1416.7566386947087
41,1427.949756464927,1427.949756464927,1432.000998818244,1446.3411770580788
42,1478.1764971247376,1478.1764971247376,1491.721941104447,1506.4801144222167
43,1493.6089196125536,1493.6089196125536,1509.6369777275122,1527.0745437988896
44,1531.8290259770336,1531.8290259770336,1539.7464296710298,1550.2774057792808
45,1568.3165017001381,1568.3165017001381,1573.8775983875823,1592.1878729302252
46,1609.7972802308018,1609.7972802308018,1610.1171918936236,1625.1765716270293
47,1664.9828210002597,1664.9828210002597,1692.1313282977,1703.5259243027708
48,1712.9931241204429,1712.9931241204429,1715.125769658186,1725.960667695381
49,1742.4596251643775,1742.4596251643775,1743.1234567806384,1764.7317411168845
50,1786.9797022470634,1786.9797022470634,1819.636199067884,1834.0010719531592
51,1807.5925805391948,1819.636199067884,1834.0010719531592,1850.1937296969409
52,1854.049250804529,1854.049250804529,1868.4335190875686,1884.3973430187527
53,1881.36278571924,1881.36278571924,1884.3973430187527,1899.3079803666053
54,1895.036498961782,1895.036498961782,1899.3079803666053,1914.5745160120853
55,1921.4761765021613,1921.4761765021613,1930.9263305681877,1942.3785100156872
56,1940.5186572304635,1940.5186572304635,1942.3785100156872,1958.2649956809
57,1984.144593924,1984.144593924,2040.7455252184816,2050.9835956956326
58,1999.4639396468458,2040.7455252184816,2050.9835956956326,2068.4269151314147
59,2012.0539018818572,2042.1199484457265,2072.1758928653962,2093.223002421883
60,2025.490991695392,2072.1758928653962,2093.223002421883,2114.1265086386293
61,2040.2276704652636,2073.8802396511546,2114.1265086386293,2131.1490155251095
62,2085.8119101841685,2107.198525476325,2131.1490155251095,2146.028872452476
63,2095.9286427499032,2116.6781640909744,2146.028872452476,2164.0014264140636
64,2143.5992067060233,2143.5992067060233,2164.0014264140636,2183.035491866489
65,2172.3262479211107,2172.3262479211107,2184.760439858159,2202.825395695088
66,2190.3358415885623,2190.3358415885623,2202.825395695088,2213.6801695757404
67,2245.3873974016083,2245.3873974016083,2258.6262833005726,2275.6682100594267
68,2288.881030506662,2288.881030506662,2293.6071420529283,2316.094567652103
69,2341.2143289390892,2341.2143289390892,2344.3928720222243,2363.4630074465576
70,2371.960463615988,2371.960463615988,2382.790313530587,2395.687302139256
71,2395.9009513482447,2395.9009513482447,2408.988125135915,2426.6551560733005
72,2446.9752614204453,2446.9752614204453,2454.696468489827,2472.1898918444185
73,2457.510472456937,2457.510472456937,2472.1898918444185,2484.859511708289
74,2470.5261220790935,2471.7074058562803,2484.859511708289,2499.5928027532836
75,2519.2996051990826,2519.2996051990826,2564.60279141523,2584.005994257269
76,2548.643846256843,2564.60279141523,2584.005994257269,2596.2616198614473
77,2598.3677631199666,2598.3677631199666,2605.1097389338443,2623.936803701665
78,2613.515989877211,2613.515989877211,2629.383692287362,2642.352074292338
79,2633.2239643617295,2633.2239643617295,2650.2067961224175,2665.1355525265203
80,2688.618410865949,2688.618410865949,2690.8739458177047,2702.893594851383
81,2738.566084158074,2738.566084158074,2753.3865490023622,2765.164673909337
82,2758.648436670755,2758.648436670755,2765.164673909337,2783.2318821966487
83,2793.2382989435573,2793.2382989435573,2794.749701560087,2808.8251436575715
84,2847.4886128336407,2847.4886128336407,2856.834534901971,2870.9959824793054
85,2888.0875900109586,2888.0875900109586,2908.274642227224,2929.2974508114826
86,2926.145465801435,2926.145465801435,2931.632296204138,2944.825235909551
87,2944.3602788573558,2944.3602788573558,2961.3530672483116,2981.6860864169103
88,2965.534887444273,2965.534887444273,2991.586362662745,3005.2337934254597
89,2986.7343240785617,2991.586362662745,3005.2337934254597,3021.164063192945
90,2996.1429614334056,2996.1429614334056,3021.164063192945,3040.7452301501057
91,3028.3005929397664,3028.3005929397664,3040.7452301501057,3058.669397669854
92,3058.43919685974,3058.43919685974,3062.0534120591064,3082.3559794577022
93,3103.304300246792,3103.304300246792,3124.091495213804,3140.848935923708
94,3111.4471806034526,3124.091495213804,3140.848935923708,3158.9903129625623
95,3140.3803662454397,3140.3803662454397,3158.9903129625623,3169.969085189889
96,3185.4864055007215,3185.4864055007215,3212.944148422712,3223.047324921822
97,3210.4865172744685,3212.944148422712,3225.179767713303,3241.075395872475
98,3222.467789164556,3225.179767713303,3241.075395872475,3254.5790979820204
99,3255.0507084830733,3255.0507084830733,3263.0744369080344,3282.764715463319
100,3287.9249863340856,3287.9249863340856,3303.8612666827335,3323.39700922658
101,3317.2409202024237,3317.2409202024237,3323.39700922658,3336.617658581509
102,3357.78355996429,3357.78355996429,3358.401629224094,3374.100782413492
103,3367.9256230711344,3367.9256230711344,3384.0619817785227,3404.5733544148175
104,3419.324222081948,3419.324222081948,3419.4568318230345,3430.9134038377156
105,3444.8415739718034,3444.8415739718034,3447.21010114228,3460.371219509147
106,3494.5595480029942,3494.5595480029942,3497.7617719684276,3513.7551830651723
107,3547.5496417902204,3547.5496417902204,3553.3702695948505,3568.838932939659
108,3583.630665307652,3583.630665307652,3586.978925700521,3603.082928346771
109,3608.1280273176744,3608.1280273176744,3614.1595879263473,3631.137200035468
110,3639.0352805161397,3639.0352805161397,3652.888635366188,3665.802159773981
111,3679.1910526615547,3679.1910526615547,3701.6261043372833,3721.5945773237913
112,3690.7733879118637,3701.6261043372833,3721.5945773237913,3738.1034046178934
113,3699.2923578582363,3702.1818116729787,3738.1034046178934,3752.34658550018
114,3724.9119231501013,3724.9119231501013,3752.34658550018,3772.2455261393106
115,3768.9626953063425,3768.9626953063425,3772.2455261393106,3787.2796211283435
116,3795.3171013335004,3795.3171013335004,3801.7205654088134,3815.974663238732
117,3806.581072937046,3806.581072937046,3823.833085029829,3833.8450426222507
118,3816.478385743724,3823.833085029829,3841.3848009296808,3862.1636023524743
119,3834.107255376678,3841.3848009296808,3862.1636023524743,3877.8336515287165
120,3865.35544274603,3865.35544274603,3879.6652781645034,3899.4635803404867
121,3884.8915438443805,3884.8915438443805,3899.4635803404867,3916.868764708393
122,3929.5353220817087,3929.5353220817087,3940.0950695734423,3957.2148243251672
123,3970.510474896334,3970.510474896334,4019.1475754170187,4035.9935014596235
124,4010.618832526414,4019.1475754170187,4035.9935014596235,4051.515429415056
125,4033.1633180972544,4033.1633180972544,4051.515429415056,4067.2412659382608
126,4059.5586014743144,4059.5586014743144,4072.878910674705,4089.268629625811
127,4099.372332853258,4099.372332853258,4115.163307027305,4130.048875687563
128,4151.193910801401,4151.193910801401,4172.911647819323,4185.971850773344
129,4169.952293323527,4172.911647819323,4185.971850773344,4204.3959353841865
130,4185.461619939858,4185.461619939858,4204.3959353841865,4222.880279140289
131,4207.434475785528,4207.434475785528,4229.009196313294,4244.811350097414
132,4217.499207329716,4229.009196313294,4256.825955145445,4277.481701037316
133,4232.344104235272,4256.825955145445,4287.019208306923,4298.0820697581175
134,4277.788857544079,4287.019208306923,4298.0820697581175,4316.843067718793
135,4290.306812751912,4293.622365136975,4316.843067718793,4329.746963908648
136,4330.411676831455,4330.411676831455,4360.6505286459615,4375.5407300157685
137,4359.228294354966,4360.6505286459615,4375.5407300157685,4389.586049801487
138,4385.7693836264625,4385.7693836264625,4393.795600042765,4408.988464848402
139,4404.403865260636,4404.403865260636,4408.988464848402,4425.99202770013
140,4445.858657046111,4445.858657046111,4490.032392757546,4508.149522403935
141,4476.196149854233,4490.032392757546,4508.149522403935,4523.7189802213625
142,4520.034969234233,4520.034969234233,4524.179298841539,4536.579540320736
143,4528.780127730441,4528.780127730441,4536.579540320736,4549.273411785273
144,4571.24772078774,4571.24772078774,4572.579231878524,4585.388668076203
145,4615.044771603698,4615.044771603698,4621.81756557323,4644.168587727611
146,4624.1138994537005,4624.1138994537005,4644.168587727611,4665.443838394651
147,4654.739048403706,4654.739048403706,4682.716250832686,4695.397984010568
148,4697.532109597636,4697.532109597636,4699.05994757477,4716.076998798721
149,4747.4750409987955,4747.4750409987955,4766.134140542844,4786.522218165576
150,4772.315473142451,4772.315473142451,4786.522218165576,4805.2580788723
151,4785.74910652094,4785.74910652094,4805.2580788723,4817.225289541441
152,4827.018164249103,4827.018164249103,4836.648765428209,4853.498370548929
153,4858.07090915637,4858.07090915637,4859.286414706617,4875.262985054038
154,4899.305926606619,4899.305926606619,4923.861673184848,4939.875606063435
155,4937.625350881478,4937.625350881478,4939.875606063435,4952.519779772921
156,4950.0498978470105,4950.0498978470105,4966.9782098245505,4983.418761948062
157,4996.960425240133,4996.960425240133,5014.638223863109,5032.000129537456
158,5009.593651928031,5014.638223863109,5032.000129537456,5047.747368004489
159,5035.22879423128,5035.22879423128,5049.951775553439,5066.007014188457
160,5066.975902622334,5066.975902622334,5079.985414086826,5095.556514473644
161,5094.494721008092,5094.494721008092,5108.395925438436,5128.632321248835
162,5141.380388035316,5141.380388035316,5161.25543397758,5180.197346198481
163,5182.801122370231,5182.801122370231,5211.315253147586,5225.648873988998
164,5202.308809161633,5211.315253147586,5229.5463546100755,5242.173167433053
165,5253.362387440105,5253.362387440105,5293.115938126711,5310.935542562339
166,5293.740359628833,5293.740359628833,5310.935542562339,5326.431504426282
167,5328.197082451583,5328.197082451583,5343.392191724682,5360.8251325986685
168,5355.114227085837,5355.114227085837,5363.6703658439865,5380.159286210574
169,5405.521964667737,5405.521964667737,5429.741638148133,5441.425041300721
170,5426.3557278707485,5429.741638148133,5445.560515657746,5461.315471069956
171,5451.453321009328,5451.453321009328,5461.315471069956,5475.242518728636
172,5474.836729789472,5474.836729789472,5479.2560712344275,5496.707738270065
173,5497.939060976187,5497.939060976187,5502.219731345217,5519.322537412867
174,5547.40723852843,5547.40723852843,5565.773038601994,5587.517516731546
175,5569.11181024216,5569.11181024216,5587.517516731546,5607.27558383997
176,5615.1093664717555,5615.1093664717555,5615.817625761856,5628.749394018342
177,5637.876842852589,5637.876842852589,5651.2293394261105,5666.853830748558
178,5676.8628778932025,5676.8628778932025,5681.200977497937,5690.24066183959
179,5727.856332784027,5727.856332784027,5728.035680249981,5745.056919069949
180,5765.789548870355,5765.789548870355,5771.3401419869015,5789.740854837917
181,5792.0182835280575,5792.0182835280575,5795.884044009694,5811.534759288672
182,5807.059485945824,5807.059485945824,5818.7407115795495,5838.660585466355
183,5838.050501930254,5838.050501930254,5864.436438374345,5882.58747556877
184,5856.236821135256,5864.436438374345,5888.6358449232785,5901.705816388388
185,5911.836183873985,5911.836183873985,5912.016080771825,5928.266450383079
186,5952.0251096631855,5952.0251096631855,5975.943714309189,5991.333077225945
187,5980.41809926157,5980.41809926157,5991.333077225945,6007.764457213453
188,6017.297811217111,6017.297811217111,6027.158963309544,6042.004077010956
189,6047.1387564441575,6047.1387564441575,6049.0479721183465,6062.227398304362
190,6100.906386341355,6100.906386341355,6116.518887579189,6137.777860769204
191,6121.67347718901,6121.67347718901,6137.777860769204,6152.771030195054
192,6155.603114464933,6155.603114464933,6158.022881691179,6176.575013502768
193,6198.807712731379,6198.807712731379,6218.270576139369,6230.874139014919
194,6209.325569739448,6218.270576139369,6230.874139014919,6249.890794449318
195,6254.064496622923,6254.064496622923,6254.702743495993,6269.164049226059
196,6269.0895034211635,6269.0895034211635,6274.519747690718,6292.409707113855
197,6286.8035020955,6286.8035020955,6303.877312016866,6317.37615738405
198,6339.035182543853,6339.035182543853,6342.985497169692,6358.6751224355
199,6369.509162385794,6369.509162385794,6370.661921267006,6384.46592722384
200,6421.2782684271615,6421.2782684271615,6451.541746184723,6470.750184281175
201,6460.197224760165,6460.197224760165,6502.715255914648,6514.374424435371
202,6505.538909480582,6505.538909480582,6527.43845828128,6539.078364586872
203,6538.392403172707,6538.392403172707,6539.078364586872,6552.176867111537
204,6550.932976029301,6550.932976029301,6552.176867111537,6569.613240095802
205,6568.78275304285,6568.78275304285,6589.882741925414,6604.808408270792
206,6582.074779918431,6589.882741925414,6604.808408270792,6621.710966666635
207,6594.267022142921,6604.009620500978,6639.064531157403,6652.166284489059
208,6605.485455080068,6639.064531157403,6655.993262193514,6669.44557740682
209,6642.942483986992,6655.993262193514,6686.238416875833,6707.440522414361
210,6661.292395336043,6686.238416875833,6707.440522414361,6720.1181115231675
211,6682.203002105177,6686.259246974393,6720.1181115231675,6734.045715997647
212,6701.171129050044,6701.171129050044,6734.045715997647,6752.036273357872
213,6742.5316321762675,6742.5316321762675,6752.036273357872,6763.957833911343
214,6784.8771773910075,6784.8771773910075,6784.963028201911,6800.642972111017
215,6833.309487562634,6833.309487562634,6844.574352631762,6858.464759132602
216,6886.858038403141,6886.858038403141,6889.613534585044,6903.844614289888
217,6925.2162189282035,6925.2162189282035,6941.458026952435,6956.084369939598
218,6937.530637585242,6941.458026952435,6957.36589331424,6974.689683225953
219,6945.432922266339,6957.36589331424,6974.689683225953,6990.694695295175
220,6975.60770484239,6975.60770484239,6990.694695295175,7002.853107662515
221,7015.533359224849,7015.533359224849,7017.915465660321,7032.365180330618
222,7025.354393914434,7025.354393914434,7033.201557884926,7050.3971219553705
223,7065.992526984149,7065.992526984149,7067.17434680274,7081.909290594063
224,7076.3275047410225,7076.3275047410225,7091.604374349763,7109.283711301553
225,7093.430984921353,7093.430984921353,7109.283711301553,7122.27873889272
226,7139.767174825647,7139.767174825647,7169.198146000789,7186.04179951557
227,7186.930378451045,7186.930378451045,7197.4240332768395,7213.507452955784
228,7234.979162222422,7234.979162222422,7237.275192082154,7248.210624591667
229,7272.849865393584,7272.849865393584,7275.188252501433,7291.560979548175
230,7305.83748334486,7305.83748334486,7309.265447418554,7325.035659477098
231,7352.440038303139,7352.440038303139,7353.025726236073,7370.49631067175
232,7394.6705284479,7394.6705284479,7397.842033116465,7414.953573739343
233,7413.638100879756,7413.638100879756,7431.689918774625,7450.407913983918
234,7450.240269565981,7450.240269565981,7478.8441249658235,7492.720133578703
235,7476.940784956475,7478.8441249658235,7492.720133578703,7509.8840117389145
236,7530.759340918817,7530.759340918817,7532.415812798994,7551.636063184798
237,7573.662382991745,7573.662382991745,7573.944348586781,7586.726899223936
238,7620.806002137067,7620.806002137067,7636.590780481587,7652.60672843083
239,7641.5326575276,7641.5326575276,7652.60672843083,7668.256503891025
240,7677.171199633459,7677.171199633459,7687.22946140876,7700.116573310077
241,7721.735325510675,7721.735325510675,7731.838901371302,7750.485405676275
242,7731.772698687315,7731.838901371302,7750.485405676275,7772.206342602744
243,7774.424039714457,7774.424039714457,7778.653702139749,7797.128440209484
244,7816.878385893915,7816.878385893915,7819.504382063131,7833.587252739531
245,7832.248098357157,7832.248098357157,7835.67279387016,7848.993761178667
246,7846.424846330853,7846.424846330853,7853.073003112196,7862.717180168399
247,7877.05219752479,7877.05219752479,7878.059020997083,7890.849837286439
248,7929.617594480849,7929.617594480849,7930.536542072751,7945.80647269685
249,7981.238728879933,7981.238728879933,7990.581253837625,8009.759521333023
250,8015.374116730063,8015.374116730063,8016.539664194096,8030.196344663104
251,8032.299561493628,8032.299561493628,8057.775534921487,8070.68703892583
252,8054.134100277298,8057.775534921487,8070.68703892583,8083.480434899659
253,8065.19609932988,8065.19609932988,8083.480434899659,8100.992733408976
254,8099.063499085932,8099.063499085932,8103.390549497383,8125.023173900702
255,8127.460302025317,8127.460302025317,8148.6664447277535,8157.173309479249
256,8158.126004587394,8158.126004587394,8159.180057677503,8177.195934353783
