# file created by code in harbour_fns_1896438.jl
# file created on 2026-03-09 at 15:39:55
# parameter: seed = 1896551
# parameter: T = 30000.0
# parameter: lower_interarrival = 7.8
# parameter: upper_interarrival = 55.8
# parameter: mean_process_times = [11.0, 16.0]
# parameter: max_queue = [9223372036854775807, 4]
# parameter: time_units = hours
id,arrival_time,start_service_times,start_service_times,completion_time
1,0.0,0.0,8.931806511904076,25.860011165091777
2,16.64735763025201,16.64735763025201,25.860011165091777,43.645360477316686
3,68.08311535222049,68.08311535222049,77.47520813569889,93.29866638238246
4,76.62697150785002,77.47520813569889,93.29866638238246,108.75394381618834
5,127.22684525697318,127.22684525697318,127.336328726685,141.66929384126365
6,179.56705109898496,179.56705109898496,198.27445440748374,208.93854309532904
7,214.73502532525663,214.73502532525663,215.12510274779183,226.2385912169236
8,250.125712008102,250.125712008102,253.4287891814662,269.57871900602225
9,284.45224378728545,284.45224378728545,301.5017237546601,319.32943367407563
10,329.6562665035999,329.6562665035999,330.5748266705037,345.8038537543587
11,351.7752346482305,351.7752346482305,356.7867770969657,369.77593396434725
12,377.84557006150237,377.84557006150237,395.11480506027584,407.67344091509125
13,399.5068454922295,399.5068454922295,407.67344091509125,426.3484042163107
14,435.58139573893783,435.58139573893783,454.8988197099793,472.6099663273507
15,481.8927455601297,481.8927455601297,487.86212019841076,503.412086570208
16,511.04608461995184,511.04608461995184,511.65975655347466,528.7440933254311
17,563.2672852784847,563.2672852784847,576.3332195237521,593.6235501779198
18,585.5147945129224,585.5147945129224,593.6235501779198,603.1760378990633
19,633.6031034275368,633.6031034275368,638.8813444850374,651.635043610852
20,676.1899104305336,676.1899104305336,683.1705929395251,699.5371254411036
21,723.3864822871922,723.3864822871922,724.276927665376,737.5311542594636
22,746.4232707558889,746.4232707558889,759.1634521649954,775.7155680258173
23,795.546349955366,795.546349955366,797.1231475723245,815.8772698790593
24,836.2123925592023,836.2123925592023,841.630360681698,857.7479906173065
25,876.6268263605912,876.6268263605912,881.8043783273075,896.9742989783301
26,918.2327730662211,918.2327730662211,932.0024527848631,942.1889077643472
27,948.3608049986075,948.3608049986075,955.986975454811,970.2060844973108
28,993.0345177344174,993.0345177344174,1005.2828468551602,1019.6951678412072
29,1018.6606327481774,1018.6606327481774,1028.9197521150566,1043.7190268481518
30,1041.7764222242074,1041.7764222242074,1043.7190268481518,1065.203288212653
31,1073.2792130560617,1073.2792130560617,1083.6016468101757,1100.030676389588
32,1084.2831805829258,1084.2831805829258,1100.030676389588,1111.4551693863996
33,1114.6142061675714,1114.6142061675714,1119.8592845069031,1130.7266245010885
34,1151.3300512095748,1151.3300512095748,1161.1801296955946,1176.8863458958692
35,1195.6530268324536,1195.6530268324536,1205.80551656607,1216.7214035879363
36,1213.6833116034722,1213.6833116034722,1258.085225470338,1272.0555538262572
37,1240.8081161653745,1258.085225470338,1285.3553513454347,1303.4727927282727
38,1248.6644231062378,1285.3553513454347,1309.7868403886575,1329.1380424194574
39,1293.4430660264156,1309.7868403886575,1329.1380424194574,1349.5450666161712
40,1347.1501783436524,1347.1501783436524,1349.6247590308776,1365.0891963439979
41,1391.8458781689455,1391.8458781689455,1401.7881907523097,1416.4272956213847
42,1420.0143222722072,1420.0143222722072,1440.455002820078,1453.0763232010656
43,1433.6933232214942,1440.455002820078,1475.410205839325,1488.2046364890057
44,1453.3919929710314,1475.410205839325,1488.2046364890057,1502.4354227416782
45,1505.2449563511752,1505.2449563511752,1509.8179364494363,1528.0728487659662
46,1558.9397734991232,1558.9397734991232,1569.9516329026928,1583.2514920712804
47,1569.8698827480628,1569.9516329026928,1583.2514920712804,1599.1330732747645
48,1579.3502694804777,1579.3502694804777,1599.1330732747645,1613.3970424449067
49,1618.62151549035,1618.62151549035,1634.8634363249225,1653.7076210731627
50,1629.1274422144886,1634.8634363249225,1653.7076210731627,1669.2295193634511
51,1664.846145192571,1664.846145192571,1669.2676307613326,1684.8795023866774
52,1686.7985159600196,1686.7985159600196,1708.1090874290096,1725.81144008412
53,1706.1259448553076,1708.1090874290096,1727.0313646243392,1744.2548864434798
54,1760.458011400478,1760.458011400478,1766.5316457420142,1785.8787681569268
55,1788.9062481097815,1788.9062481097815,1801.831884979954,1817.6437903059714
56,1797.4345980175672,1801.831884979954,1817.6437903059714,1830.2121434038286
57,1838.930376135007,1838.930376135007,1843.9527988119794,1856.967908356503
58,1848.9180217605897,1848.9180217605897,1857.8567206181533,1874.027745514976
59,1859.6149245536367,1859.6149245536367,1874.027745514976,1887.6863029624635
60,1911.4703413442317,1911.4703413442317,1931.9962250075785,1947.020801227461
61,1944.7797851190744,1944.7797851190744,1947.020801227461,1966.934126599938
62,1988.92244388696,1988.92244388696,1990.6005572989754,2004.7517121846029
63,2032.3286281034789,2032.3286281034789,2040.508376760449,2056.8269661406
64,2056.1539960422388,2056.1539960422388,2066.7267428861446,2083.7597504944856
65,2068.2478528944657,2068.2478528944657,2083.7597504944856,2101.868278666319
66,2085.2068808747385,2085.2068808747385,2101.868278666319,2118.543031741483
67,2103.692999224226,2103.692999224226,2119.7735264537714,2136.560855975079
68,2144.334355403479,2144.334355403479,2145.472033262148,2163.9158914028926
69,2192.940678324822,2192.940678324822,2195.2678785218623,2208.3150973363
70,2228.7652320369193,2228.7652320369193,2240.682404375335,2258.649162525145
71,2245.133238026294,2245.133238026294,2258.649162525145,2275.252525016769
72,2291.6745749725633,2291.6745749725633,2291.724556291246,2306.4403033067138
73,2302.4630052644566,2302.4630052644566,2306.991807931221,2319.4279427470233
74,2347.7474026552245,2347.7474026552245,2355.4005166067923,2372.4631174375722
75,2356.272030579656,2356.272030579656,2372.4631174375722,2386.5471515312142
76,2374.384838324353,2374.384838324353,2417.350609665582,2439.596503784428
77,2395.3081959841393,2417.350609665582,2443.22820328798,2460.240271945595
78,2433.047454847976,2443.22820328798,2460.240271945595,2477.055609138088
79,2474.940663325907,2474.940663325907,2490.7183520755066,2514.506402219517
80,2487.663830656455,2490.7183520755066,2514.506402219517,2533.6072645154527
81,2513.034926522596,2513.034926522596,2533.6072645154527,2554.2215845780165
82,2532.2074544660295,2533.59778938877,2554.2215845780165,2569.5188797833393
83,2562.882631519339,2562.882631519339,2569.5188797833393,2585.3471060636266
84,2574.266433343409,2574.266433343409,2585.5616792904098,2603.1332325519916
85,2617.276500002421,2617.276500002421,2650.1605778263197,2670.023344421078
86,2633.156206476822,2650.1605778263197,2670.023344421078,2686.1054096745893
87,2645.8487212909313,2665.3107718393317,2686.1054096745893,2701.868045851556
88,2698.4489177214214,2698.4489177214214,2705.931166573214,2728.610358877979
89,2744.120265036835,2744.120265036835,2758.8093366893286,2774.6354134889184
90,2789.435763438274,2789.435763438274,2792.735795660045,2807.7635272299417
91,2827.5723552174863,2827.5723552174863,2827.8389762016614,2843.196501311964
92,2852.1154339320124,2852.1154339320124,2852.8340168283535,2867.321904237398
93,2866.6237816727985,2866.6237816727985,2875.190496418196,2895.537510166042
94,2879.6407277896496,2879.6407277896496,2904.831633709761,2922.074498084088
95,2910.0192267940333,2910.0192267940333,2922.074498084088,2941.0791156679256
96,2930.5560423425545,2930.5560423425545,2941.0791156679256,2954.7825293493934
97,2979.011629330156,2979.011629330156,2980.7482078691182,2997.699295711822
98,3019.206790836056,3019.206790836056,3026.9335064100496,3046.0501643139323
99,3052.35138192206,3052.35138192206,3099.70669318514,3112.0763225451274
100,3094.366967704618,3099.70669318514,3112.0763225451274,3125.1934086269735
101,3126.5796566091753,3126.5796566091753,3130.250608548022,3146.4997030943096
102,3177.641511999036,3177.641511999036,3181.0463984434605,3198.9343236375175
103,3227.144567300431,3227.144567300431,3233.6146221348795,3247.7759935184627
104,3247.2410115888338,3247.2410115888338,3264.0053534466956,3279.8662775230673
105,3292.8427118393715,3292.8427118393715,3300.680605922176,3316.5106913030004
106,3340.0531249762043,3340.0531249762043,3350.525614106925,3368.0322864651553
107,3377.5965841193424,3377.5965841193424,3385.441404759481,3402.3604862714174
108,3402.628280676462,3402.628280676462,3440.932450559321,3455.4806037052704
109,3420.4250686620403,3440.932450559321,3455.4806037052704,3472.591417810735
110,3444.350817052129,3444.350817052129,3472.591417810735,3484.211408708658
111,3481.4701941909966,3481.4701941909966,3484.406192524382,3500.38264955122
112,3508.5812282256506,3508.5812282256506,3515.443230780405,3528.8199264474274
113,3541.824816526754,3541.824816526754,3542.2089247694907,3561.0178012250976
114,3581.9977117645913,3581.9977117645913,3583.9064743131885,3599.6693225264407
115,3605.7549909974546,3605.7549909974546,3607.2415784222335,3625.6255184030424
116,3621.2118526153777,3621.2118526153777,3625.6255184030424,3638.3038420131525
117,3643.767405387369,3643.767405387369,3649.036374098023,3670.0318608809107
118,3666.5937361015312,3666.5937361015312,3670.0318608809107,3686.0919594509623
119,3696.674734762137,3696.674734762137,3701.34594861466,3722.0683149613265
120,3719.756497027513,3719.756497027513,3727.3516530325246,3743.6994663275336
121,3745.5985921292586,3745.5985921292586,3776.340856261084,3793.1580927135437
122,3754.453555003726,3776.340856261084,3793.1580927135437,3808.437158805132
123,3809.847555383939,3809.847555383939,3825.638963843593,3837.6027538687254
124,3841.255236985232,3841.255236985232,3853.0578492347054,3867.975448114059
125,3896.82573063227,3896.82573063227,3898.6958015312766,3915.381374676683
126,3911.620609942776,3911.620609942776,3915.381374676683,3928.3547609106636
127,3951.1116715285025,3951.1116715285025,3954.113774341744,3968.839601201386
128,3970.7336606159583,3970.7336606159583,3978.2041239839787,3994.085340255363
129,3996.045100718625,3996.045100718625,3999.9617710462207,4019.530801411101
130,4011.9037493707287,4011.9037493707287,4019.530801411101,4037.5224563905954
131,4056.269668843194,4056.269668843194,4064.915066914557,4079.671941033983
132,4103.536149872494,4103.536149872494,4106.89551199032,4118.417476671277
133,4137.2951612502175,4137.2951612502175,4157.861197786408,4175.868010251872
134,4191.715507696435,4191.715507696435,4196.705167729586,4221.481972028168
135,4223.848674057055,4223.848674057055,4266.488822655824,4279.762256133269
136,4274.490657954598,4274.490657954598,4286.966819935447,4301.31749271146
137,4308.704910113423,4308.704910113423,4317.311750554877,4335.037282688908
138,4319.291154235642,4319.291154235642,4339.188188562367,4353.521877403916
139,4360.837670293596,4360.837670293596,4362.5343408711815,4380.093385600265
140,4378.825816597042,4378.825816597042,4390.566258906333,4405.173781097676
141,4420.727001103236,4420.727001103236,4475.27626546304,4492.8551908696345
142,4468.574247987677,4475.27626546304,4492.8551908696345,4509.203424776434
143,4506.236950227077,4506.236950227077,4509.203424776434,4523.040160783156
144,4549.307889575939,4549.307889575939,4561.807291665227,4577.140419094592
145,4565.669351299253,4565.669351299253,4595.995380481206,4614.22277464318
146,4611.102738034046,4611.102738034046,4638.533120583906,4657.885824309385
147,4627.5002357771,4638.533120583906,4657.885824309385,4675.924047125293
148,4646.663443769094,4646.663443769094,4675.924047125293,4688.572520022172
149,4661.5009972709895,4661.5009972709895,4688.572520022172,4704.701591477013
150,4690.091175203104,4690.091175203104,4704.701591477013,4721.765890607647
151,4705.289081823563,4705.289081823563,4721.765890607647,4740.168555585369
152,4745.007297085907,4745.007297085907,4752.030607000169,4769.8094008925
153,4791.440602986188,4791.440602986188,4791.853538946747,4805.4244282073605
154,4809.8474263035505,4809.8474263035505,4813.073775662528,4833.945015520945
155,4833.107896593252,4833.107896593252,4868.23737093754,4882.686960955268
156,4851.254755390469,4868.23737093754,4936.188184056884,4946.702988682558
157,4871.049425745141,4936.188184056884,4946.702988682558,4956.838036149938
158,4922.5080391243655,4938.671459850776,4956.838036149938,4978.094278467608
159,4937.972315442277,4941.666311744595,4978.094278467608,4994.470977767569
160,4947.974382891352,4947.974382891352,4994.470977767569,5005.88168260641
161,4975.5874964411105,4975.5874964411105,5011.888751943547,5029.393037646874
162,4990.180277737987,5011.888751943547,5029.393037646874,5040.851694983682
163,5007.852261132205,5016.340656366039,5040.851694983682,5056.88848287396
164,5028.154803249364,5028.154803249364,5056.88848287396,5073.231575483391
165,5076.294832761126,5076.294832761126,5079.426936567031,5091.19024854921
166,5124.111421194169,5124.111421194169,5126.686108602033,5145.472624266879
167,5149.961298076698,5149.961298076698,5150.8453463100805,5166.081476765699
168,5166.849870365705,5166.849870365705,5174.859508015166,5182.919336696774
169,5212.069419808517,5212.069419808517,5226.6321472908985,5244.2266455572935
170,5264.442528174272,5264.442528174272,5270.909864281489,5281.072715103447
171,5282.9667498549325,5282.9667498549325,5283.971761092061,5303.7889454432325
172,5318.163845757153,5318.163845757153,5360.692065113439,5378.8186757374015
173,5334.103619450379,5360.692065113439,5378.8186757374015,5391.315407067248
174,5373.445627876408,5375.149198439703,5391.315407067248,5406.521176455849
175,5429.048812311529,5429.048812311529,5430.1421924058595,5449.301843446449
176,5459.6532036498065,5459.6532036498065,5476.2063965918815,5494.407185657241
177,5511.821300299108,5511.821300299108,5538.526841447232,5554.758744445999
178,5557.1989011513515,5557.1989011513515,5562.52008456764,5574.460007635555
179,5569.056572440719,5569.056572440719,5574.460007635555,5590.713403366199
180,5622.440256412926,5622.440256412926,5649.368781355223,5666.942107885227
181,5636.711106034176,5649.368781355223,5666.942107885227,5677.362670333003
182,5665.995836882175,5665.995836882175,5677.362670333003,5693.439169719652
183,5695.609705301387,5695.609705301387,5698.249176877888,5719.890230888397
184,5719.612061797294,5719.612061797294,5720.2508440670845,5738.318637700849
185,5763.816527889489,5763.816527889489,5765.118285489916,5783.2444917374805
186,5787.878930041175,5787.878930041175,5790.349152833519,5809.728816142982
187,5838.875559627166,5838.875559627166,5841.054455225305,5852.474668608757
188,5872.700387670752,5872.700387670752,5877.222971423743,5896.189114641137
189,5908.241955252313,5908.241955252313,5909.6529334186835,5929.822132321486
190,5918.426953938165,5918.426953938165,5935.326157529741,5950.904151253555
191,5940.15102839795,5940.15102839795,5958.446101463907,5971.598600634677
192,5962.860032243255,5962.860032243255,5971.598600634677,5988.89330575011
193,6012.676076756897,6012.676076756897,6023.556707482427,6040.119805519604
194,6050.781039225291,6050.781039225291,6054.269848186376,6068.530199207627
195,6076.4868255840765,6076.4868255840765,6081.630681480308,6095.629216687683
196,6088.688761277274,6088.688761277274,6095.629216687683,6114.616440092261
197,6123.569472229845,6123.569472229845,6128.9646089346925,6146.275724056432
198,6160.155207633611,6160.155207633611,6171.547652813481,6184.346796887105
199,6202.329250055595,6202.329250055595,6216.2784931374745,6229.595809017036
200,6225.655249303735,6225.655249303735,6230.314143950358,6246.839723331125
201,6247.470395516483,6247.470395516483,6255.175341611831,6265.55282684566
202,6288.833934440855,6288.833934440855,6290.693615474246,6305.815874520209
203,6304.458787654312,6304.458787654312,6330.57423046118,6343.574759363268
204,6325.5077262920395,6330.57423046118,6343.574759363268,6361.569860347233
205,6364.9185463283775,6364.9185463283775,6370.740909884689,6384.012530290365
206,6388.031686858255,6388.031686858255,6400.085864257982,6419.027767145495
207,6434.230057343971,6434.230057343971,6460.897725420979,6476.386047944398
208,6486.6479290204215,6486.6479290204215,6487.09681809494,6503.513276901526
209,6501.129285850577,6501.129285850577,6536.56063278415,6551.154150855901
210,6535.398566205741,6536.56063278415,6551.154150855901,6563.077453899857
211,6589.805531204053,6589.805531204053,6612.654480894994,6627.079701756274
212,6634.592922951831,6634.592922951831,6643.365075983613,6660.909407729264
213,6683.489789839927,6683.489789839927,6692.013934914971,6703.358197921333
214,6719.920504073388,6719.920504073388,6727.371563154,6743.86055235453
215,6738.541153106758,6738.541153106758,6743.86055235453,6765.087820802943
216,6747.317855572622,6747.317855572622,6765.087820802943,6781.101651835124
217,6770.614117253509,6770.614117253509,6781.101651835124,6795.82225437609
218,6811.702782055634,6811.702782055634,6825.089798777834,6836.409062413388
219,6829.234928943858,6829.234928943858,6836.409062413388,6850.447245227871
220,6837.867910486652,6837.867910486652,6850.447245227871,6865.314010631323
221,6869.544510500394,6869.544510500394,6879.381578407556,6898.933897257543
222,6883.315801497508,6883.315801497508,6898.933897257543,6915.455079023846
223,6935.7810916190465,6935.7810916190465,6956.59027763061,6973.32213961584
224,6947.9946943664345,6956.59027763061,6973.32213961584,6990.237266025478
225,6970.487675310088,6970.487675310088,6990.237266025478,7003.928213859115
226,6986.143065659448,6986.143065659448,7003.928213859115,7020.250524950764
227,7025.832467407712,7025.832467407712,7029.188804169982,7043.316429220408
228,7057.568656469581,7057.568656469581,7058.40393547702,7076.0405248683865
229,7080.2998190566,7080.2998190566,7084.630244010638,7103.7427084657475
230,7129.482928389619,7129.482928389619,7131.608409094372,7146.779990530421
231,7167.0159572587,7167.0159572587,7173.372099055574,7186.97735663946
232,7189.756119718949,7189.756119718949,7196.867203297378,7213.843283037785
233,7228.364838072053,7228.364838072053,7232.941144717142,7247.0206003173935
234,7254.8496476348455,7254.8496476348455,7268.384300404262,7285.252326068055
235,7293.683006511795,7293.683006511795,7297.138297016416,7314.348204657265
236,7338.751518887668,7338.751518887668,7339.0873262664645,7354.141102804563
237,7351.631811117621,7351.631811117621,7361.687530373844,7383.833301304598
238,7384.356252952969,7384.356252952969,7393.522682244594,7409.4574893080635
239,7417.737238045977,7417.737238045977,7422.150813183922,7442.136694024572
240,7472.9611647990505,7472.9611647990505,7477.462001630586,7496.99384448715
241,7491.087424623456,7491.087424623456,7496.99384448715,7507.235359882243
242,7530.602995671064,7530.602995671064,7585.7299100763275,7599.145053443343
243,7577.707544572955,7585.7299100763275,7599.145053443343,7611.897264349255
244,7622.342277285198,7622.342277285198,7623.816599153203,7642.050186374302
245,7672.623477911014,7672.623477911014,7708.031444778903,7723.258329442623
246,7689.799433729634,7708.031444778903,7743.665765289811,7762.188994890389
247,7735.86256730106,7743.665765289811,7762.188994890389,7780.71359099787
248,7757.085603174604,7757.085603174604,7780.71359099787,7802.076643798175
249,7812.800379962795,7812.800379962795,7818.761705453311,7836.80859137291
250,7853.813053074191,7853.813053074191,7877.108315139858,7892.338220274662
251,7869.196059377685,7877.108315139858,7892.338220274662,7907.496047419096
252,7891.634913912221,7891.634913912221,7907.496047419096,7925.638504218755
253,7930.266768553138,7930.266768553138,7936.919835770933,7951.058751209318
254,7971.630227667715,7971.630227667715,7972.095736971638,7991.600786187215
255,8016.036545667823,8016.036545667823,8019.098243098343,8038.53729734192
256,8069.923661019812,8069.923661019812,8101.901282857934,8120.519400404923
