# file created by code in harbour_fns_1896438.jl
# file created on 2026-03-09 at 15:39:50
# parameter: seed = 1896478
# parameter: T = 30000.0
# parameter: lower_interarrival = 7.8
# parameter: upper_interarrival = 55.8
# parameter: mean_process_times = [11.0, 16.0]
# parameter: max_queue = [9223372036854775807, 4]
# parameter: time_units = hours
id,arrival_time,start_service_times,start_service_times,completion_time
1,0.0,0.0,10.65251997269676,28.523504676619034
2,41.63267342204199,41.63267342204199,49.03745471658075,67.59376001797061
3,83.02486237705968,83.02486237705968,88.32170144856242,103.39356783621085
4,133.9434527270945,133.9434527270945,137.90557199699177,153.94883403326045
5,181.4850852792002,181.4850852792002,195.96741650383984,219.68050999591748
6,227.1798003791855,227.1798003791855,231.14466760972022,248.27154739197059
7,265.7688650097417,265.7688650097417,271.61818384764814,291.3074072477581
8,293.2044109436394,293.2044109436394,293.54650235013105,312.1944957150915
9,326.1851862607284,326.1851862607284,356.84317507628225,372.9283861613358
10,352.92692388029843,356.84317507628225,401.1697089589816,415.1565197043937
11,377.7682783763544,401.1697089589816,415.1565197043937,429.0632213828198
12,394.88035015634796,411.84145619345526,429.0632213828198,444.55227886502985
13,415.444052222471,416.1389450739629,444.55227886502985,456.33642791740505
14,468.52788470115325,468.52788470115325,478.28982486412184,495.0481583005157
15,488.9807923294825,488.9807923294825,495.0481583005157,505.4497104970161
16,500.16620655639,500.16620655639,522.2062601628127,537.5175149210083
17,518.2076009994587,522.2062601628127,537.5175149210083,556.8949205716435
18,573.366336286086,573.366336286086,575.4044594084634,590.4002655640411
19,603.8306254751349,603.8306254751349,604.3754121808055,616.8865128581053
20,642.629777127401,642.629777127401,646.6704351682697,664.9793036031263
21,680.2841014101099,680.2841014101099,683.2813288671832,695.6385801740996
22,735.9818282790777,735.9818282790777,738.6096388212976,757.1157812599108
23,779.9425395782993,779.9425395782993,789.9305540464759,804.7261170357929
24,789.7656300022923,789.9305540464759,809.1542661118217,827.9588158590456
25,845.5576919890912,845.5576919890912,848.0802102135149,859.6142154553673
26,885.8286241516889,885.8286241516889,896.2637951579075,907.5973900702475
27,904.236850981851,904.236850981851,914.9399487059341,927.3114154830193
28,926.3457834936439,926.3457834936439,930.3841594531641,950.3063327511182
29,945.7703560703701,945.7703560703701,950.3063327511182,964.9677406489207
30,968.4059272802651,968.4059272802651,984.7548328517229,998.5544305703836
31,1022.8561487386709,1022.8561487386709,1030.2138070596293,1045.2316214991704
32,1038.562438233986,1038.562438233986,1068.461479061168,1083.2272128517816
33,1068.2597670327839,1068.461479061168,1083.2272128517816,1095.7786152932756
34,1117.0625015244286,1117.0625015244286,1142.0064027903593,1159.6588780478464
35,1152.5546226954923,1152.5546226954923,1159.6588780478464,1177.2940547559192
36,1175.445689394931,1175.445689394931,1181.8005485616475,1197.3299854795948
37,1203.1786995890864,1203.1786995890864,1222.2809946090763,1240.1826999968184
38,1256.3508990272499,1256.3508990272499,1283.2042838084587,1297.973767616015
39,1287.1878694454176,1287.1878694454176,1301.5312503834423,1318.3975748607154
40,1308.905177521009,1308.905177521009,1318.3975748607154,1332.8941813113686
41,1360.1120249426863,1360.1120249426863,1379.8045995366904,1395.6609607942064
42,1398.2102385043129,1398.2102385043129,1413.6857378918103,1428.5981037687302
43,1438.3844677338332,1438.3844677338332,1439.9386074556317,1451.8325133813778
44,1489.3831192645707,1489.3831192645707,1501.5119450680393,1520.4719881748213
45,1543.9884087131989,1543.9884087131989,1560.0510718153737,1571.5268158831818
46,1593.2515223022688,1593.2515223022688,1614.5251086077224,1625.8538772475993
47,1611.1240502858736,1614.5251086077224,1625.8538772475993,1644.0403078212837
48,1633.9687885348824,1633.9687885348824,1644.0403078212837,1656.605265861464
49,1654.2940679306348,1654.2940679306348,1664.8903169458076,1680.3067867207671
50,1667.3472146978565,1667.3472146978565,1680.3067867207671,1693.564794602607
51,1705.1811515278446,1705.1811515278446,1715.058363710182,1734.270495419002
52,1732.131403119745,1732.131403119745,1742.321960830153,1757.406092497738
53,1780.7161225693715,1780.7161225693715,1805.4312649484273,1822.090928853611
54,1809.3010006828763,1809.3010006828763,1845.8711121956194,1860.6574033475506
55,1851.543623343503,1851.543623343503,1860.6574033475506,1876.8954952615873
56,1887.1556842823838,1887.1556842823838,1892.6345571952645,1912.6383421568073
57,1915.6701182118054,1915.6701182118054,1917.8066851382591,1931.796440485616
58,1967.8574623756406,1967.8574623756406,1982.8987432047263,1999.3069601559782
59,1989.4964577235946,1989.4964577235946,1999.3069601559782,2018.588689226913
60,2035.3246595806022,2035.3246595806022,2040.046118882219,2054.6116914828312
61,2080.3775683798335,2080.3775683798335,2084.537086078764,2098.931820337508
62,2119.0191713726194,2119.0191713726194,2139.2871138583437,2154.956038433429
63,2131.757575149269,2139.2871138583437,2154.956038433429,2172.4273955779377
64,2171.315381269307,2171.315381269307,2172.4273955779377,2184.1105426713593
65,2192.2551860144354,2192.2551860144354,2193.9125398374986,2213.019651064677
66,2217.809200260261,2217.809200260261,2221.2081060934443,2238.267655245501
67,2244.1084543525985,2244.1084543525985,2245.195797096728,2258.484190923579
68,2260.330860815069,2260.330860815069,2266.643947168241,2279.753596499129
69,2276.8196659889227,2276.8196659889227,2295.872979999836,2314.786747082302
70,2286.651877337841,2295.872979999836,2314.786747082302,2332.1773486877096
71,2326.6933532941166,2326.6933532941166,2332.1773486877096,2349.828962040359
72,2370.438774664082,2370.438774664082,2372.7051855409927,2386.9745605876387
73,2381.140658190384,2381.140658190384,2386.9745605876387,2404.5569589022252
74,2418.4155048159487,2418.4155048159487,2430.8638546116895,2446.63600184534
75,2446.799042735956,2446.799042735956,2452.6209347380204,2475.6184413841597
76,2477.9727290989536,2477.9727290989536,2494.4726763950744,2511.4980550061177
77,2500.0608620785106,2500.0608620785106,2511.4980550061177,2521.9413166534955
78,2524.5534847434974,2524.5534847434974,2535.513480097006,2551.967478317619
79,2562.964648606541,2562.964648606541,2563.826634018509,2582.7480536603143
80,2577.1211060369947,2577.1211060369947,2584.7059533879647,2604.244605142414
81,2627.990617515377,2627.990617515377,2639.0750912501153,2654.5950288925615
82,2647.873177641783,2647.873177641783,2660.1295078659887,2673.082233873181
83,2656.1396887324463,2660.1295078659887,2675.3666685085973,2694.3712032766875
84,2679.2649455131723,2679.2649455131723,2694.3712032766875,2712.1874887649888
85,2702.579799736261,2702.579799736261,2713.4830862783942,2728.523030746155
86,2715.7816183041245,2715.7816183041245,2728.523030746155,2744.4507539141896
87,2726.780400094328,2726.780400094328,2744.4507539141896,2761.146762599391
88,2742.8131983206495,2742.8131983206495,2761.146762599391,2775.031377945515
89,2785.080137476212,2785.080137476212,2810.3801099973793,2824.112911884815
90,2839.135387726469,2839.135387726469,2840.871890067324,2858.073918436171
91,2873.274517430943,2873.274517430943,2874.996927512681,2887.0441114587293
92,2889.5083470080012,2889.5083470080012,2896.4140130658902,2912.034891076466
93,2910.7369420514538,2910.7369420514538,2924.8488404958784,2945.5796783661735
94,2938.1997926547233,2938.1997926547233,2950.9080693519973,2966.718561472079
95,2969.836747918487,2969.836747918487,2972.9013918261203,2986.7945892277367
96,3003.289055354519,3003.289055354519,3016.0249340476066,3037.341990680725
97,3045.4006645694994,3045.4006645694994,3049.6950870146356,3060.6787407244337
98,3078.3424700233645,3078.3424700233645,3081.8337187349102,3095.8023460588943
99,3099.143371199455,3099.143371199455,3100.3750801680094,3124.2491035448215
100,3109.1574188010977,3109.1574188010977,3124.2491035448215,3134.4427325098413
101,3129.597716776607,3129.597716776607,3144.300939851218,3157.5928047142315
102,3156.648565910694,3156.648565910694,3165.6227495558132,3180.373404458167
103,3207.639413937486,3207.639413937486,3208.386968061684,3226.0595117497314
104,3247.4909783779876,3247.4909783779876,3251.8479000744983,3265.541924535099
105,3302.007982247066,3302.007982247066,3313.610893365759,3328.801855117655
106,3323.075126439778,3323.075126439778,3335.0281642193618,3347.732614691472
107,3344.342803847215,3344.342803847215,3347.732614691472,3362.481573380818
108,3380.1479664753433,3380.1479664753433,3390.18256057381,3405.956900723147
109,3429.622480866642,3429.622480866642,3431.3878951890865,3449.6296040951956
110,3457.1439036907004,3457.1439036907004,3464.3918501735766,3484.4772003253133
111,3501.1000141278323,3501.1000141278323,3506.07337485794,3523.753447385546
112,3543.4510258676837,3543.4510258676837,3551.9097600790033,3568.7012478617603
113,3593.844648367861,3593.844648367861,3597.3366134598077,3616.178689123004
114,3606.3179434824356,3606.3179434824356,3616.178689123004,3632.5781262566375
115,3645.0800988343435,3645.0800988343435,3651.1329456146645,3667.6965956869885
116,3676.0131085033113,3676.0131085033113,3677.6201699013554,3695.4863260645175
117,3728.9607729445083,3728.9607729445083,3737.818011602053,3757.7856438797858
118,3765.848009086162,3765.848009086162,3772.069703625716,3792.81544854765
119,3804.66138811829,3804.66138811829,3816.4515161738254,3834.697368444978
120,3818.052167960426,3818.052167960426,3834.697368444978,3856.142913067566
121,3830.9489768652834,3830.9489768652834,3856.142913067566,3873.371052222485
122,3881.216347204748,3881.216347204748,3885.6963844158963,3902.583453779102
123,3924.479423571126,3924.479423571126,3937.5564442143045,3953.5332443683756
124,3971.9391669989823,3971.9391669989823,3973.1110603600605,3991.1596419857974
125,3982.365895801267,3982.365895801267,4000.143374927548,4017.5794942922585
126,4021.9863871988214,4021.9863871988214,4024.610356968715,4045.1740201903526
127,4049.0711269177405,4049.0711269177405,4066.0455005710587,4080.15479962978
128,4092.9686838020575,4092.9686838020575,4093.0175086781755,4111.342778052982
129,4126.120315251697,4126.120315251697,4135.285562273852,4152.884529122303
130,4166.222532737576,4166.222532737576,4183.616086865068,4202.257073340509
131,4212.993510419825,4212.993510419825,4226.113614807851,4245.768103356759
132,4240.548343924882,4240.548343924882,4254.936307728552,4269.293401204599
133,4250.79250508737,4254.936307728552,4269.293401204599,4285.0932050657275
134,4285.865038811198,4285.865038811198,4287.199685133704,4298.777004794921
135,4298.351375510117,4298.351375510117,4308.094088629955,4318.006856193209
136,4312.4265667414675,4312.4265667414675,4318.006856193209,4333.058232820606
137,4326.685667186596,4326.685667186596,4333.058232820606,4348.796552746818
138,4340.665110345514,4340.665110345514,4352.762975574974,4372.390724747296
139,4393.077081019796,4393.077081019796,4394.61244514893,4413.161435360159
140,4442.285669744081,4442.285669744081,4457.042204069151,4472.538063442737
141,4453.4604715887435,4457.042204069151,4488.260096085369,4499.194177369222
142,4473.459387578813,4488.260096085369,4499.194177369222,4510.4991741013255
143,4523.760246237558,4523.760246237558,4528.608986400897,4545.0794594655345
144,4541.005168112299,4541.005168112299,4552.371663616757,4568.182379515136
145,4555.650291626177,4555.650291626177,4571.352865120455,4586.398309956557
146,4584.666579404369,4584.666579404369,4617.247961150554,4632.991880135383
147,4614.971611808278,4617.247961150554,4632.991880135383,4649.087681819878
148,4646.826636743536,4646.826636743536,4650.161639611972,4664.07553708056
149,4674.739407163399,4674.739407163399,4707.135551313639,4717.550329302547
150,4726.118029446754,4726.118029446754,4755.702488047634,4772.891721032858
151,4765.281198219792,4765.281198219792,4790.108177676065,4810.727958551173
152,4801.850219952183,4801.850219952183,4810.727958551173,4822.452574766663
153,4842.158537939638,4842.158537939638,4844.039885633544,4863.811597535282
154,4851.068233342903,4851.068233342903,4863.811597535282,4881.687419034023
155,4866.475802671633,4866.475802671633,4881.687419034023,4897.8495717375445
156,4914.765700752331,4914.765700752331,4935.689458857111,4945.426679765505
157,4947.129582324871,4947.129582324871,4963.510816316946,4984.44174260632
158,5000.201260744103,5000.201260744103,5006.0515928700215,5026.916232224364
159,5014.165886596611,5014.165886596611,5026.916232224364,5040.041450815149
160,5063.377287870514,5063.377287870514,5064.8051573398225,5082.278339002443
161,5085.146699920736,5085.146699920736,5090.685615431631,5113.646798923012
162,5109.673121703714,5109.673121703714,5113.646798923012,5127.279065386382
163,5135.900954531017,5135.900954531017,5136.955800060103,5156.632176302167
164,5167.4283287258095,5167.4283287258095,5167.746241569555,5183.416886360939
165,5208.521180732113,5208.521180732113,5213.955951006797,5233.138029408582
166,5242.492302091147,5242.492302091147,5245.696833384322,5259.191385227997
167,5282.926923754148,5282.926923754148,5290.608575183269,5306.966866579745
168,5322.531675942938,5322.531675942938,5340.237655240047,5352.684863887976
169,5364.271549103774,5364.271549103774,5370.247780575613,5390.479768476831
170,5380.354013726259,5380.354013726259,5398.2890983073785,5414.436072645506
171,5399.820791535542,5399.820791535542,5414.436072645506,5429.835767670624
172,5409.658682869664,5409.658682869664,5429.835767670624,5448.0988081201995
173,5425.185167144411,5425.185167144411,5448.0988081201995,5468.661454629567
174,5452.323964853868,5452.323964853868,5468.661454629567,5479.9388924509285
175,5499.533788163566,5499.533788163566,5501.106616673245,5515.398041440569
176,5544.47025803503,5544.47025803503,5545.088963880872,5556.8377489608065
177,5562.017893377152,5562.017893377152,5568.065371138996,5583.598040831117
178,5572.193492140258,5572.193492140258,5583.598040831117,5600.619650756201
179,5597.616773376455,5597.616773376455,5600.619650756201,5617.058705828938
180,5627.230529030924,5627.230529030924,5646.742060016786,5657.387640649239
181,5667.542547845922,5667.542547845922,5673.496080393203,5692.882363988729
182,5716.417588587773,5716.417588587773,5734.286893874122,5749.4586968053045
183,5742.130131673929,5742.130131673929,5763.5938199665625,5781.2572292844625
184,5786.249632512539,5786.249632512539,5792.2766982916455,5809.564891346333
185,5798.433345464804,5798.433345464804,5837.176978317299,5851.014178847076
186,5848.16533044863,5848.16533044863,5852.636452481037,5870.166360247848
187,5858.025907369173,5858.025907369173,5870.166360247848,5890.08314596917
188,5877.49399351313,5877.49399351313,5890.08314596917,5906.636318208995
189,5894.819404578183,5894.819404578183,5959.026426744047,5971.29963212313
190,5916.714152171954,5959.026426744047,5971.29963212313,5989.583355765622
191,5960.7908083715065,5961.685094062087,5989.583355765622,6007.4369046146385
192,5973.738165480122,5985.309069500582,6007.4369046146385,6023.2935608884245
193,6009.6714828453705,6009.6714828453705,6028.445696422151,6041.296395431676
194,6047.760190497911,6047.760190497911,6062.382051927621,6079.233515035299
195,6062.6072853363885,6062.6072853363885,6079.233515035299,6095.073262933841
196,6091.208677437479,6091.208677437479,6100.970061645291,6119.793476478105
197,6124.809737912351,6124.809737912351,6131.112224706282,6148.525768056374
198,6135.792155517496,6135.792155517496,6148.525768056374,6164.190571927745
199,6173.995984119881,6173.995984119881,6176.256718274265,6195.147429095542
200,6202.705193730995,6202.705193730995,6208.216586869613,6225.407404651585
201,6253.633958328882,6253.633958328882,6262.004270930561,6279.269534832909
202,6308.956676927644,6308.956676927644,6317.342628424289,6331.872151832952
203,6358.110085822455,6358.110085822455,6359.343986162448,6375.949871881611
204,6366.721593276019,6366.721593276019,6375.949871881611,6392.491592877786
205,6399.544682059152,6399.544682059152,6400.168369011644,6414.208076393292
206,6422.326202212132,6422.326202212132,6432.4465346027655,6446.102051618336
207,6434.201309184274,6434.201309184274,6471.525474949422,6488.2782333074465
208,6465.112091389798,6471.525474949422,6488.2782333074465,6503.078681346822
209,6479.740022163177,6479.740022163177,6503.078681346822,6514.97489837605
210,6522.35229358276,6522.35229358276,6528.765490398585,6543.036169390414
211,6565.667804271265,6565.667804271265,6574.46008663945,6587.303028593274
212,6599.851740567005,6599.851740567005,6613.595525727964,6629.6223503198225
213,6609.902149042269,6613.595525727964,6629.6223503198225,6647.867765153442
214,6651.771743498648,6651.771743498648,6653.6701667263205,6674.883031705873
215,6677.638660374251,6677.638660374251,6696.826441860182,6714.144592581488
216,6716.362878203799,6716.362878203799,6730.2958929851475,6743.4829624615195
217,6738.749593111909,6738.749593111909,6743.4829624615195,6755.403793293068
218,6777.547603680145,6777.547603680145,6799.198444992116,6816.379332303618
219,6825.790640577968,6825.790640577968,6829.271195479642,6839.902949838294
220,6872.55729596922,6872.55729596922,6877.422551281372,6889.7248229698735
221,6916.292482599729,6916.292482599729,6923.930773808926,6943.8390685942495
222,6948.952432769149,6948.952432769149,6961.300430316112,6975.454603220693
223,6960.072377491527,6961.300430316112,6975.454603220693,6993.326688623125
224,6971.544745160826,6971.544745160826,6993.326688623125,7011.477836430716
225,7001.76170073412,7001.76170073412,7011.477836430716,7022.862821592261
226,7028.397417510948,7028.397417510948,7037.489654667049,7056.771012616858
227,7071.724634564344,7071.724634564344,7071.7992150861855,7086.4617565863255
228,7096.72300037517,7096.72300037517,7120.5154674141,7135.32491831334
229,7150.985635861203,7150.985635861203,7156.997423294997,7172.486237431241
230,7184.363529295086,7184.363529295086,7199.977398521989,7213.870065788783
231,7197.017368262803,7199.977398521989,7213.870065788783,7228.497681241325
232,7247.033962955903,7247.033962955903,7265.812842392197,7282.0628838885605
233,7266.739285937341,7266.739285937341,7282.0628838885605,7294.8031269556905
234,7314.500403528589,7314.500403528589,7314.741918188642,7333.5395055579875
235,7343.65308236761,7343.65308236761,7351.271209126178,7365.6913909473105
236,7355.83743879123,7355.83743879123,7365.6913909473105,7383.352380629413
237,7389.171600936557,7389.171600936557,7393.107892514247,7413.077903380921
238,7404.305951008979,7404.305951008979,7413.077903380921,7427.182982067291
239,7423.608786543898,7423.608786543898,7436.691113488597,7449.293596322048
240,7462.6584431347865,7462.6584431347865,7474.3061274014035,7490.457759277805
241,7492.854277761045,7492.854277761045,7500.621820857585,7515.084976379115
242,7515.082665967256,7515.082665967256,7528.482775394778,7545.3158360256275
243,7558.117662756182,7558.117662756182,7577.739679704798,7595.406435561613
244,7568.094564697424,7577.739679704798,7598.642564647325,7615.958964622223
245,7605.377972328857,7605.377972328857,7615.958964622223,7633.363536227095
246,7613.54239542192,7613.677137872235,7634.900140889476,7652.120653819998
247,7638.5120523634605,7638.5120523634605,7652.120653819998,7665.783001334968
248,7667.0376371624525,7667.0376371624525,7690.49500391365,7707.888767804668
249,7698.216351640336,7698.216351640336,7707.888767804668,7717.134333377862
250,7717.396651137527,7717.396651137527,7717.838096409158,7736.764786506491
251,7733.283967789174,7733.283967789174,7740.763835618776,7755.127290411522
252,7756.0503406450525,7756.0503406450525,7763.550199103661,7776.195532766744
253,7790.05535402941,7790.05535402941,7790.7711759564745,7806.805269734682
254,7833.441286653298,7833.441286653298,7836.217199341543,7849.746230897852
255,7859.13406174705,7859.13406174705,7878.425769708912,7896.164263087736
