# file created by code in harbour_fns_1896438.jl
# file created on 2026-03-09 at 15:39:52
# parameter: seed = 1896501
# parameter: T = 30000.0
# parameter: lower_interarrival = 7.8
# parameter: upper_interarrival = 55.8
# parameter: mean_process_times = [11.0, 16.0]
# parameter: max_queue = [9223372036854775807, 4]
# parameter: time_units = hours
id,arrival_time,start_service_times,start_service_times,completion_time
1,0.0,0.0,19.42381627432083,35.44928080041869
2,40.335930090382135,40.335930090382135,40.571895974006054,56.79637595741668
3,65.16650372539803,65.16650372539803,67.39606853986362,83.41751944422259
4,100.76154768541474,100.76154768541474,101.75758575041372,115.09349215877506
5,110.63052434268627,110.63052434268627,115.09349215877506,128.32196324152838
6,161.7066954298854,161.7066954298854,161.76481399864696,169.21034747844777
7,174.88911513854376,174.88911513854376,175.05809869335522,192.5462431725054
8,224.21234947936557,224.21234947936557,226.32373028599852,247.05527067688251
9,278.9638849934957,278.9638849934957,290.5103288404542,299.5893754948991
10,322.2118008880349,322.2118008880349,330.3053772054395,346.9268689402023
11,347.02806661362337,347.02806661362337,348.0001971616353,366.1487776895319
12,360.73857967610314,360.73857967610314,406.21422454001265,422.7786684916797
13,370.42254736757434,406.21422454001265,422.7786684916797,441.07880017983956
14,386.3255105376795,410.93772471748343,441.07880017983956,455.59763748611664
15,428.7732005609414,428.7732005609414,455.59763748611664,473.5420559104074
16,469.2909746667125,469.2909746667125,495.38612836928763,510.34917840915665
17,510.4394658355771,510.4394658355771,536.6302140427285,551.9507182444181
18,548.6554484740485,548.6554484740485,580.8637425826246,593.2622863764943
19,587.5640857108428,587.5640857108428,595.2773107077586,608.6934005872498
20,608.7988314375903,608.7988314375903,610.9154381862598,627.2673123246547
21,641.522624564063,641.522624564063,642.4237497040394,657.1762453080148
22,689.7463657363957,689.7463657363957,700.8982076282786,720.4523298716272
23,726.6871597982184,726.6871597982184,727.1387899416083,741.3129579316079
24,768.0012173243423,768.0012173243423,773.2446748953988,785.5906636448128
25,799.7240138928302,799.7240138928302,848.5092689075634,865.071504095032
26,838.054285543684,848.5092689075634,865.071504095032,878.7322409558111
27,868.0454646663278,868.0454646663278,878.7322409558111,899.1674331026103
28,917.3473138989459,917.3473138989459,932.3950084377074,954.21645793718
29,937.1116891678317,937.1116891678317,954.21645793718,970.6906992948042
30,992.8683524669698,992.8683524669698,1025.242669840315,1039.0294061265154
31,1015.7148589113231,1025.242669840315,1041.619308709188,1054.63312198033
32,1060.2336310394014,1060.2336310394014,1066.119056458608,1084.9594916965011
33,1088.093224368567,1088.093224368567,1098.3091041437942,1116.28526397438
34,1136.1566770066456,1136.1566770066456,1145.8298183607044,1164.3309135449101
35,1147.5105578547286,1147.5105578547286,1164.3309135449101,1181.1394595982813
36,1179.5702262126215,1179.5702262126215,1204.0662696011425,1216.1848943526165
37,1221.920206447197,1221.920206447197,1224.5473953548417,1239.9854060743357
38,1257.6711710089724,1257.6711710089724,1272.336690936536,1287.015159831943
39,1302.8104320924497,1302.8104320924497,1311.181638676472,1326.3948033181273
40,1322.5262872428384,1322.5262872428384,1326.3948033181273,1340.081410245663
41,1335.0728338365998,1335.0728338365998,1348.2224329588719,1363.746545405291
42,1366.3730576873636,1366.3730576873636,1369.8983324474698,1382.0762733127199
43,1401.9981529293457,1401.9981529293457,1453.400262632142,1470.6174341032217
44,1437.065055028461,1453.400262632142,1478.840548420602,1490.5933285956335
45,1454.6387896883887,1478.840548420602,1545.6370619051795,1563.2451501536796
46,1491.9277699833624,1545.6370619051795,1563.2451501536796,1582.6689234653954
47,1541.7204023436545,1560.9751523504517,1582.6689234653954,1597.1096749327091
48,1550.9482026885319,1563.1747346125098,1597.1096749327091,1615.9820481119887
49,1601.235721255682,1601.235721255682,1615.9820481119887,1632.4027042261034
50,1615.7188248208734,1615.7188248208734,1632.4027042261034,1647.1247917872745
51,1648.941112629028,1648.941112629028,1650.2469794623553,1665.218141969595
52,1691.134463080636,1691.134463080636,1695.010567141716,1710.6916141544814
53,1711.5165596865318,1711.5165596865318,1723.1062148932308,1739.2081033751622
54,1749.3422348021938,1749.3422348021938,1765.1805818359207,1781.4192710464727
55,1763.9978250097622,1765.1805818359207,1781.4192710464727,1801.118113920431
56,1807.446106436986,1807.446106436986,1833.1458484685006,1851.173485470598
57,1847.7909003904242,1847.7909003904242,1868.9769492576293,1888.0181799430939
58,1895.6306426333247,1895.6306426333247,1920.418000379701,1937.012750549493
59,1934.424017973972,1934.424017973972,1950.389333068482,1968.2094168981441
60,1962.3297203640673,1962.3297203640673,1971.2380104798717,1986.593092153737
61,2010.8817918913392,2010.8817918913392,2013.4519717690487,2027.499809561912
62,2029.3888477594678,2029.3888477594678,2045.9264396569736,2063.2335241493024
63,2050.433129170178,2050.433129170178,2091.0809003459303,2107.0972712471817
64,2083.0795466462705,2091.0809003459303,2107.0972712471817,2127.0762500341984
65,2117.74152868764,2117.74152868764,2127.0762500341984,2142.4658311934672
66,2154.683515236979,2154.683515236979,2177.464736917625,2192.703763178677
67,2185.418928000081,2185.418928000081,2205.7066572259173,2222.193122555854
68,2198.234031073205,2205.7066572259173,2222.193122555854,2236.141115008617
69,2243.5552980137063,2243.5552980137063,2257.9035651887457,2274.131138343864
70,2282.92568887935,2282.92568887935,2307.124507009296,2324.3282828223055
71,2321.144530767302,2321.144530767302,2328.0506801927204,2346.876921921684
72,2368.116556220133,2368.116556220133,2370.2119222287993,2383.5087125804757
73,2421.119856278803,2421.119856278803,2433.5617959343394,2452.612624193589
74,2450.321588780234,2450.321588780234,2453.419260683227,2473.1397666344114
75,2481.3953601202825,2481.3953601202825,2484.3395403119303,2503.1078469877607
76,2498.425210908426,2498.425210908426,2503.1078469877607,2515.657604616911
77,2509.309085098116,2509.309085098116,2515.657604616911,2532.832641242601
78,2541.095557116841,2541.095557116841,2551.1739521755703,2561.75295991225
79,2549.3478208448105,2551.1739521755703,2575.3019890165,2593.051583919076
80,2582.1062683313185,2582.1062683313185,2593.051583919076,2603.9651081914494
81,2601.3705550786785,2601.3705550786785,2603.9651081914494,2611.786751403357
82,2631.9996995866704,2631.9996995866704,2643.7628537516307,2656.7003245669857
83,2669.6603979666056,2669.6603979666056,2678.7460933088933,2698.3220201296126
84,2708.76277367028,2708.76277367028,2710.72233081281,2724.4510073554084
85,2752.648479098464,2752.648479098464,2756.597758234636,2771.1077510633822
86,2793.069095825367,2793.069095825367,2807.8718443003145,2823.0756488781362
87,2823.8921473313117,2823.8921473313117,2835.8942027126764,2849.879303294563
88,2843.032897995731,2843.032897995731,2865.0649104660383,2884.4139212743758
89,2892.945560996726,2892.945560996726,2893.081518997168,2910.5530015141635
90,2907.8412254793843,2907.8412254793843,2921.4112381449363,2945.110940023925
91,2942.0598747685485,2942.0598747685485,2947.1413249563366,2958.7229949353136
92,2974.525366431651,2974.525366431651,2984.8769259541095,2996.2983660710715
93,3028.956010851917,3028.956010851917,3037.9518924369086,3055.4499037568053
94,3038.1942995162526,3038.1942995162526,3077.585022680388,3093.655452750705
95,3081.7450942161595,3081.7450942161595,3093.655452750705,3114.465152549267
96,3112.7654823130742,3112.7654823130742,3115.505068564912,3135.243880547734
97,3144.0633801261556,3144.0633801261556,3145.6827633827083,3168.4386495769586
98,3175.1976468133216,3175.1976468133216,3180.4916547656376,3195.8783061950594
99,3213.925489010001,3213.925489010001,3229.4025465589953,3240.509297098336
100,3268.5149988551366,3268.5149988551366,3272.138696452165,3289.8895153143667
101,3285.344280130907,3285.344280130907,3295.009857055607,3309.3069119859783
102,3302.573177330127,3302.573177330127,3309.3069119859783,3326.163016863963
103,3343.921565652399,3343.921565652399,3345.3849336217777,3363.487906024859
104,3396.125396449059,3396.125396449059,3396.4991468355456,3415.7326975704873
105,3419.0649985676796,3419.0649985676796,3422.1725375900696,3440.482748819183
106,3456.064760047665,3456.064760047665,3471.198026387345,3487.4318907506563
107,3483.629759805184,3483.629759805184,3487.4318907506563,3504.98265481591
108,3532.8315946962816,3532.8315946962816,3547.3422783066917,3562.182165881412
109,3555.3638850649054,3555.3638850649054,3568.3906712188495,3585.439011055213
110,3569.472590513664,3569.472590513664,3585.439011055213,3600.949925889314
111,3587.3499134919357,3587.3499134919357,3600.949925889314,3619.632611961736
112,3608.3677452897687,3608.3677452897687,3619.632611961736,3638.703703022364
113,3642.5488211599845,3642.5488211599845,3672.8575446280825,3692.503473181705
114,3676.942112920543,3676.942112920543,3692.503473181705,3706.541053227286
115,3693.3067001471904,3693.3067001471904,3706.541053227286,3719.3188760734156
116,3726.582737620975,3726.582737620975,3728.819360148433,3744.148999298493
117,3752.2517021114772,3752.2517021114772,3769.5516090810443,3790.8235979030146
118,3800.6877377187875,3800.6877377187875,3805.7094066562577,3821.036022669438
119,3824.9508288409806,3824.9508288409806,3827.229145479362,3840.4622455976605
120,3849.903365889661,3849.903365889661,3858.4900377435033,3879.0724489401928
121,3902.953170263939,3902.953170263939,3904.2987358716546,3917.2102776715305
122,3925.601790758951,3925.601790758951,3930.039939151954,3944.0054166847026
123,3965.673677258347,3965.673677258347,4000.658370666765,4016.796977697191
124,4019.8572176536777,4019.8572176536777,4031.0127347498924,4043.766168238136
125,4046.8605957390073,4046.8605957390073,4046.9023483187116,4060.045934481199
126,4073.186001539305,4073.186001539305,4086.479147072105,4102.018642491966
127,4121.961284294919,4121.961284294919,4141.804916164633,4155.502292771425
128,4156.379498565047,4156.379498565047,4159.788028462226,4175.066591241695
129,4200.138070096663,4200.138070096663,4204.107110087131,4218.74397823607
130,4211.769371065957,4211.769371065957,4218.74397823607,4237.653336690065
131,4266.142371303424,4266.142371303424,4266.586709201388,4282.927094384749
132,4279.809430368206,4279.809430368206,4299.790033921848,4317.444188618335
133,4313.530645563053,4313.530645563053,4318.302445154995,4332.472480280457
134,4348.098953890578,4348.098953890578,4362.188828857159,4375.761417507906
135,4382.385541837134,4382.385541837134,4389.103293913455,4403.6523378808015
136,4418.319001606408,4418.319001606408,4419.539634670352,4436.787584995766
137,4434.37123419583,4434.37123419583,4439.941442502169,4458.876895934982
138,4475.978248206298,4475.978248206298,4476.97192609257,4495.497047904342
139,4528.555275365706,4528.555275365706,4540.99063417492,4558.97022998612
140,4579.870024743824,4579.870024743824,4587.883136712497,4602.9545828879645
141,4615.807061235724,4615.807061235724,4631.352865952824,4642.440477023176
142,4655.888443824849,4655.888443824849,4669.915537802925,4685.807527052411
143,4675.852010926866,4675.852010926866,4685.807527052411,4700.466686193989
144,4692.954589628827,4692.954589628827,4713.173547238969,4728.863434549474
145,4719.840138659536,4719.840138659536,4734.414726538973,4755.640421707573
146,4734.444228983659,4734.444228983659,4755.640421707573,4770.520619020565
147,4749.495260617169,4749.495260617169,4770.520619020565,4789.550979206194
148,4800.735624030773,4800.735624030773,4833.553025051244,4850.756290497081
149,4815.779262287698,4833.553025051244,4850.756290497081,4870.5945366949945
150,4862.765453830165,4862.765453830165,4890.283293080005,4905.94167970381
151,4883.292922413814,4890.283293080005,4905.94167970381,4917.87770382947
152,4930.315090086193,4930.315090086193,4932.638579525196,4951.517653666479
153,4969.19976247716,4969.19976247716,4969.288203469912,4988.19509814177
154,5004.6836923638875,5004.6836923638875,5007.668689180465,5023.42892811532
155,5014.305259545817,5014.305259545817,5030.306438793591,5048.293185945032
156,5027.064045339217,5030.306438793591,5048.293185945032,5066.262519619563
157,5053.985713849207,5053.985713849207,5066.262519619563,5088.219332375279
158,5070.553816544884,5070.553816544884,5094.783038978442,5116.01605076259
159,5121.802200499456,5121.802200499456,5132.931486629546,5148.907229256056
160,5174.224815612794,5174.224815612794,5220.130304809297,5232.679511013896
161,5195.073231734073,5220.130304809297,5232.679511013896,5245.738434974422
162,5233.4080332234,5233.4080332234,5245.738434974422,5262.601899616096
163,5278.534129986981,5278.534129986981,5293.355797718597,5305.760890372974
164,5308.86765651983,5308.86765651983,5339.043470747384,5353.258916576554
165,5349.1570566113605,5349.1570566113605,5360.2396205668265,5375.254406824526
166,5371.441008720089,5371.441008720089,5383.515390994655,5400.855349923243
167,5386.614318206113,5386.614318206113,5408.6351770163365,5422.921474724485
168,5416.861818104379,5416.861818104379,5422.921474724485,5436.775820016441
169,5435.662662159911,5435.662662159911,5440.787281007516,5459.000152821679
170,5474.183569546594,5474.183569546594,5476.456899269626,5489.185948790268
171,5518.780470001959,5518.780470001959,5523.559710797682,5541.089381321079
172,5526.797418211744,5526.797418211744,5541.089381321079,5561.075563660312
173,5562.073041042163,5562.073041042163,5594.104566123876,5610.262170131116
174,5574.344056135702,5594.104566123876,5613.765552143058,5629.952782643794
175,5615.050284634566,5615.050284634566,5629.952782643794,5651.001015771243
176,5670.822399805698,5670.822399805698,5678.086800556398,5700.097395419624
177,5690.889735721153,5690.889735721153,5708.723897190997,5720.967422887445
178,5702.801835619879,5708.723897190997,5752.973470540038,5766.656416186455
179,5727.445160911887,5752.973470540038,5766.656416186455,5781.846377172754
180,5756.9588662252845,5756.9588662252845,5781.846377172754,5797.268021301012
181,5801.3793385334675,5801.3793385334675,5822.0601154541155,5838.853132218918
182,5819.547226411275,5822.0601154541155,5838.853132218918,5852.504861105836
183,5845.559743188686,5845.559743188686,5852.504861105836,5867.10101308121
184,5858.035717544161,5858.035717544161,5867.10101308121,5880.805107833243
185,5893.038934358734,5893.038934358734,5918.0345420461545,5931.952214902591
186,5946.472922927303,5946.472922927303,5946.754879321271,5967.078811727152
187,5973.5948063126425,5973.5948063126425,5985.868404643633,6002.1726270819245
188,5994.252202386828,5994.252202386828,6010.632537769077,6021.958129267657
189,6040.158251505836,6040.158251505836,6055.885095477708,6076.0728247188945
190,6049.476609015816,6055.885095477708,6076.0728247188945,6093.324430598654
191,6063.944751974646,6074.402628672255,6093.324430598654,6112.561385730514
192,6099.315817450704,6099.315817450704,6135.906685258827,6154.397321836806
193,6135.996754715099,6135.996754715099,6185.1922363918375,6204.685632723751
194,6170.343929036754,6185.1922363918375,6204.685632723751,6221.1545620420975
195,6208.323738783122,6208.323738783122,6236.256883471864,6251.336426392623
196,6233.495794375535,6236.256883471864,6251.336426392623,6265.4504030298685
197,6253.510915709238,6253.510915709238,6265.4504030298685,6282.163026823961
198,6283.730054071305,6283.730054071305,6294.3589156248145,6305.461049109981
199,6314.539607705467,6314.539607705467,6318.751877235364,6335.372645922629
200,6335.278453334439,6335.278453334439,6341.182802441572,6358.239443313933
201,6365.286538156542,6365.286538156542,6390.311902787128,6410.01229229238
202,6408.2425848784205,6408.2425848784205,6412.005153752734,6426.898899916789
203,6419.465857595001,6419.465857595001,6441.112877177146,6458.314128709013
204,6440.990500399611,6441.112877177146,6458.314128709013,6474.841705861742
205,6496.381605548404,6496.381605548404,6507.897014701663,6520.503667453393
206,6533.910417877068,6533.910417877068,6542.053471303094,6555.729357002141
207,6568.657770795861,6568.657770795861,6592.803976363977,6607.823669189184
208,6597.00303639488,6597.00303639488,6608.7593152758645,6624.209613426957
209,6605.5490343689935,6608.7593152758645,6624.209613426957,6639.209987319994
210,6632.083384878957,6632.083384878957,6639.209987319994,6657.175588144514
211,6678.467383577079,6678.467383577079,6717.76958437732,6733.9608499294945
212,6695.030886719359,6717.76958437732,6733.9608499294945,6748.2508375941425
213,6736.374744112624,6736.374744112624,6748.2508375941425,6762.647871371738
214,6763.362520294065,6763.362520294065,6778.041037583868,6799.050722325654
215,6773.348551356142,6778.041037583868,6799.050722325654,6818.928129402048
216,6790.161225612643,6790.161225612643,6818.928129402048,6834.456660215133
217,6833.470028638916,6833.470028638916,6834.456660215133,6851.848570887851
218,6866.810985223641,6866.810985223641,6868.28705890296,6886.818961562499
219,6892.174624666191,6892.174624666191,6908.298726008832,6923.111300750455
220,6935.154720314391,6935.154720314391,6947.394581361196,6963.143302041256
221,6973.561715560964,6973.561715560964,6982.92102857909,7001.1313975061985
222,7028.668389669713,7028.668389669713,7045.276130174468,7061.724126813714
223,7038.964901013045,7045.276130174468,7076.853647534426,7095.927017375092
224,7051.145061476719,7076.853647534426,7095.927017375092,7118.644013180378
225,7105.897585461492,7105.897585461492,7118.644013180378,7141.703392177675
226,7160.334254627992,7160.334254627992,7170.855548823899,7186.830298474878
227,7171.585093373019,7171.585093373019,7186.830298474878,7198.705788079247
228,7223.84229175958,7223.84229175958,7228.04819096878,7245.163286562181
229,7241.323666855441,7241.323666855441,7245.163286562181,7256.340179157115
230,7290.631097707187,7290.631097707187,7292.246642128871,7303.908761815482
231,7315.4350424588765,7315.4350424588765,7319.304486927698,7330.946450818119
232,7350.99791093345,7350.99791093345,7362.168908024812,7375.271662734827
233,7387.957100397119,7387.957100397119,7399.070667262416,7413.8989392115345
234,7432.5233476427375,7432.5233476427375,7434.7804119327975,7449.761434007263
235,7451.8001462744505,7451.8001462744505,7454.724935739804,7473.929331734872
236,7479.662857792493,7479.662857792493,7483.405973533201,7499.387993231582
237,7511.674982712139,7511.674982712139,7544.793443623196,7567.218451049076
238,7550.480960312748,7550.480960312748,7567.218451049076,7582.835596707354
239,7594.370150930755,7594.370150930755,7598.479620748218,7610.270597125118
240,7637.815088715514,7637.815088715514,7651.286926851028,7672.001807610717
241,7681.250524529609,7681.250524529609,7683.886329086405,7704.342670110532
242,7714.666666282229,7714.666666282229,7724.965947374443,7743.4300202869745
243,7741.25093232998,7741.25093232998,7803.775546148969,7816.813595891174
244,7775.106094462387,7803.775546148969,7821.266889761977,7837.228954673769
245,7823.109661699247,7823.109661699247,7837.228954673769,7854.358830806098
246,7851.5415771911,7851.5415771911,7863.237241380841,7879.236036714286
247,7895.834963061498,7895.834963061498,7902.243369202339,7918.623732361846
248,7931.781725777533,7931.781725777533,8013.449128329023,8025.338826137773
249,7963.07914124774,8013.449128329023,8025.338826137773,8037.286454698581
250,7976.258068067566,8015.417346684475,8037.286454698581,8054.268087470294
251,7984.963946117686,8029.486933673126,8054.268087470294,8074.53434382285
252,8036.907780155784,8049.387380953323,8074.53434382285,8094.531341178485
253,8084.148020838835,8084.148020838835,8094.531341178485,8113.261454848044
254,8121.739641343727,8121.739641343727,8124.9805397908885,8140.675578374428
255,8144.434537156829,8144.434537156829,8153.794325998875,8162.893467407357
256,8199.23658872027,8199.23658872027,8202.684921564452,8223.974529163455
