# file created by code in harbour_fns_1896438.jl
# file created on 2026-03-09 at 15:39:52
# parameter: seed = 1896506
# parameter: T = 30000.0
# parameter: lower_interarrival = 7.8
# parameter: upper_interarrival = 55.8
# parameter: mean_process_times = [11.0, 16.0]
# parameter: max_queue = [9223372036854775807, 4]
# parameter: time_units = hours
id,arrival_time,start_service_times,start_service_times,completion_time
1,0.0,0.0,4.6782463362229665,22.03113461662957
2,37.96707284436912,37.96707284436912,40.28522849569258,60.36923156103659
3,65.45816488808026,65.45816488808026,75.05763969501744,98.13917512436652
4,93.54809006765825,93.54809006765825,99.34271535389536,112.18077435011952
5,136.96648935648756,136.96648935648756,142.63257993676496,160.2987133742608
6,164.16906391916797,164.16906391916797,203.22479212031106,222.5614123325795
7,184.35003907958767,203.22479212031106,222.5614123325795,237.39961627345116
8,215.3624619656667,215.3624619656667,237.39961627345116,252.3008350106695
9,239.89713463974147,239.89713463974147,252.3008350106695,271.9248934996212
10,282.8147637468787,282.8147637468787,288.7088024633469,305.5242245277882
11,320.6138868228671,320.6138868228671,322.02229200362655,337.66135576613794
12,355.1208309541835,355.1208309541835,374.7562252730505,388.20457949524274
13,373.04095283194897,374.7562252730505,388.20457949524274,402.8241519820027
14,392.22291342575886,392.22291342575886,402.8241519820027,425.2670649021244
15,441.20424402693504,441.20424402693504,443.1243585818025,455.62635503443494
16,486.16392030607216,486.16392030607216,504.29857144268675,522.6148547208919
17,518.539722846589,518.539722846589,524.5273387323862,547.8151383267917
18,565.6269237111973,565.6269237111973,569.8269450124908,583.4612165708971
19,603.9062719363465,603.9062719363465,608.5389424527402,622.7988757063256
20,644.5631021378306,644.5631021378306,666.9408982442403,681.4964232289508
21,658.1443046888862,666.9408982442403,681.4964232289508,696.2861195536161
22,676.8693727089467,676.8693727089467,696.2861195536161,711.9631288267796
23,702.3422009948238,702.3422009948238,711.9631288267796,726.9332329425486
24,727.6415231583156,727.6415231583156,734.8458438878365,752.0493233218922
25,759.8765704881038,759.8765704881038,766.6185804757248,777.585470625905
26,809.0814348917218,809.0814348917218,818.7937643217246,831.6259039534634
27,826.0371324209459,826.0371324209459,832.2516504207435,849.4153818266401
28,864.3129039371972,864.3129039371972,883.3913896812353,903.3932039610227
29,918.2098932944606,918.2098932944606,944.9850016521405,961.5535672904407
30,957.7451754093414,957.7451754093414,969.8329939143365,984.2537326773428
31,968.8753568054117,969.8329939143365,985.7524378401725,999.7332672031099
32,987.2334509254429,987.2334509254429,999.7332672031099,1015.2497187367662
33,1039.9370062426844,1039.9370062426844,1051.178799554565,1066.7158940458887
34,1055.132266352256,1055.132266352256,1066.7158940458887,1089.0934507226
35,1079.3230127210754,1079.3230127210754,1089.6294090355823,1108.766428845214
36,1122.9600250561914,1122.9600250561914,1135.1638948425466,1152.278484838424
37,1167.2987314816917,1167.2987314816917,1172.9860235014157,1192.2872663831993
38,1202.7024338903204,1202.7024338903204,1204.2020071464476,1220.2285522698644
39,1211.0459682503786,1211.0459682503786,1220.2285522698644,1232.955286672673
40,1223.6094750761715,1223.6094750761715,1232.955286672673,1242.8688433004218
41,1276.0974791627,1276.0974791627,1288.9119685068918,1304.725631380328
42,1292.5911375228002,1292.5911375228002,1304.725631380328,1318.8322840135559
43,1304.6254124799268,1304.6254124799268,1318.8322840135559,1332.7804065090766
44,1321.5165864472747,1321.5165864472747,1335.6740757370758,1347.5863443870646
45,1335.3329290696188,1335.6740757370758,1347.5863443870646,1360.896822112778
46,1378.8868345329795,1378.8868345329795,1385.4063092185445,1402.1579480495668
47,1432.341529573182,1432.341529573182,1438.587984939628,1459.5731380708999
48,1472.4269057524325,1472.4269057524325,1505.56909667488,1520.3665570051944
49,1482.6223702881443,1505.56909667488,1520.3665570051944,1540.4178576524816
50,1535.1077561692305,1535.1077561692305,1555.3306657555474,1572.0328914845115
51,1561.7712743270554,1561.7712743270554,1598.9479032885276,1615.740838767575
52,1617.4536908885366,1617.4536908885366,1620.9341071862505,1636.3073482884288
53,1646.0511892224063,1646.0511892224063,1681.4629342268852,1697.8696550740838
54,1690.9883746705545,1690.9883746705545,1704.2289612725422,1718.8804399695055
55,1715.270617073505,1715.270617073505,1733.6363195668753,1750.7423637978536
56,1734.9559775407968,1734.9559775407968,1750.7423637978536,1763.33444952317
57,1749.8549953912236,1749.8549953912236,1763.33444952317,1782.4995321416145
58,1793.9095279723922,1793.9095279723922,1803.5263386882646,1820.5857135394356
59,1829.52078130594,1829.52078130594,1835.4090258500737,1848.2364229835255
60,1850.9506830852904,1850.9506830852904,1857.4855616082202,1873.9259339942269
61,1905.2408808630335,1905.2408808630335,1926.6580381530089,1945.4010491666295
62,1921.0046320271204,1926.6580381530089,1945.4010491666295,1960.551759639997
63,1944.2851037184114,1944.2851037184114,1960.551759639997,1979.8726504273484
64,1990.449416240771,1990.449416240771,1993.0132954873047,2003.5731820172218
65,2012.0962863309414,2012.0962863309414,2017.214638504487,2032.8410750095309
66,2053.9270204685918,2053.9270204685918,2076.2757621082446,2094.6966014232858
67,2092.155541857955,2092.155541857955,2138.6917777274475,2156.0847657790205
68,2139.570822225988,2139.570822225988,2156.3968406545973,2169.156091855933
69,2189.0978431400654,2189.0978431400654,2212.3551618583497,2233.788381221992
70,2227.78671951657,2227.78671951657,2233.788381221992,2251.468134613123
71,2278.061846586757,2278.061846586757,2303.543683440297,2313.710854358011
72,2288.1135573073766,2303.543683440297,2313.710854358011,2329.535264074819
73,2322.495370389369,2322.495370389369,2329.535264074819,2347.328050506548
74,2350.8300474016787,2350.8300474016787,2351.026096975254,2366.139585106738
75,2388.3002746762754,2388.3002746762754,2392.582834779848,2410.989064567295
76,2443.6749648552545,2443.6749648552545,2447.947549672694,2467.9952289704256
77,2470.3409184562024,2470.3409184562024,2499.9962740662927,2516.1648876095765
78,2490.7409406757147,2499.9962740662927,2519.306683204032,2535.7286344287204
79,2535.8484951911255,2535.8484951911255,2538.6993588022997,2553.007828448426
80,2574.4092807579414,2574.4092807579414,2574.9570260025175,2590.1789455378084
81,2621.3833340447936,2621.3833340447936,2622.8624465612684,2636.1720148327477
82,2651.259069317176,2651.259069317176,2654.5848475515986,2672.61412441253
83,2660.4421555155623,2660.4421555155623,2672.61412441253,2689.6343301452057
84,2700.4528100948996,2700.4528100948996,2707.028066396568,2723.8890797579506
85,2739.2586770350063,2739.2586770350063,2744.7386460088715,2760.3431863116234
86,2769.111102336534,2769.111102336534,2787.0586903601657,2800.034611801194
87,2818.324174350024,2818.324174350024,2860.812216117767,2879.2423671816246
88,2839.01596860486,2860.812216117767,2879.2423671816246,2893.3172562754617
89,2863.45250652149,2865.046509651399,2893.3172562754617,2911.503441563808
90,2892.4601279302688,2892.4601279302688,2911.503441563808,2920.458848675549
91,2933.3806438371216,2933.3806438371216,2952.807043432996,2965.2256375767884
92,2952.54655269703,2952.807043432996,2971.9981908839823,2989.918143984564
93,2999.8682131029004,2999.8682131029004,3000.147750429903,3017.482195001331
94,3010.4695380838784,3010.4695380838784,3019.758586134703,3041.2477314296284
95,3024.9055425481697,3024.9055425481697,3041.2477314296284,3059.829736124372
96,3048.0510272988113,3048.0510272988113,3062.382726267084,3074.2251966688427
97,3062.4265352547363,3062.4265352547363,3074.2251966688427,3089.1505532243013
98,3112.245672084557,3112.245672084557,3116.3798460258067,3126.7980993000415
99,3133.178503101531,3133.178503101531,3142.1855434502213,3157.8107244917956
100,3154.5464751468194,3154.5464751468194,3174.011445012657,3192.339465005001
101,3204.6399722907754,3204.6399722907754,3205.572966652928,3224.288417201414
102,3231.0379496981545,3231.0379496981545,3238.4836641083025,3252.831277786459
103,3246.809877404286,3246.809877404286,3252.831277786459,3265.671574692004
104,3299.723876428222,3299.723876428222,3302.742055880227,3321.377230168065
105,3352.0237817754783,3352.0237817754783,3355.1398461461995,3371.2087277895516
106,3389.573424050781,3389.573424050781,3391.1294010879037,3410.0120949079437
107,3416.060684374292,3416.060684374292,3422.7554485885084,3438.375177340205
108,3436.7093354795247,3436.7093354795247,3439.6144747316844,3457.309267892287
109,3463.398856483184,3463.398856483184,3479.832507171657,3497.61067257479
110,3479.057697142967,3479.832507171657,3497.61067257479,3514.8529948903893
111,3516.0856834749034,3516.0856834749034,3581.8252029629043,3596.8410665432148
112,3559.159755161563,3581.8252029629043,3596.8410665432148,3615.8109941892994
113,3579.7084722077398,3595.284744082619,3615.8109941892994,3631.5998565196796
114,3623.586793622353,3623.586793622353,3631.5998565196796,3648.691151227331
115,3646.325520885831,3646.325520885831,3656.190093540891,3670.8231683021977
116,3661.2079045826044,3661.2079045826044,3670.8231683021977,3687.5688476049936
117,3688.7793003149545,3688.7793003149545,3689.9445560924964,3709.329621577423
118,3738.3624591067255,3738.3624591067255,3743.390222617543,3757.3204204862714
119,3751.32711096928,3751.32711096928,3757.569485477292,3773.213358388762
120,3771.139661510129,3771.139661510129,3777.958936127037,3794.757267055809
121,3820.6112263809314,3820.6112263809314,3838.1280955436023,3858.647940055546
122,3867.424883113271,3867.424883113271,3871.301884724293,3886.3434699542295
123,3897.72946950709,3897.72946950709,3899.394031603781,3915.3406550246104
124,3928.2508664375882,3928.2508664375882,3929.826025366478,3948.4725540918143
125,3966.932938777316,3966.932938777316,3980.574688707115,3997.4555824538847
126,3989.6381619397334,3989.6381619397334,3999.5693061492675,4015.2750645515557
127,4007.636068127358,4007.636068127358,4015.2750645515557,4034.446891835231
128,4051.428636886426,4051.428636886426,4065.836534800213,4079.200064709381
129,4106.957564699941,4106.957564699941,4122.57266140564,4142.311580820776
130,4123.331004623325,4123.331004623325,4155.730591046553,4176.618539554122
131,4154.8485475054395,4155.730591046553,4176.618539554122,4191.892931012606
132,4188.548233307806,4188.548233307806,4209.961055551353,4231.410305448542
133,4241.310964282263,4241.310964282263,4260.343146644401,4271.675817652688
134,4290.771519891349,4290.771519891349,4302.1577408720605,4316.923005681208
135,4302.23938586452,4302.23938586452,4323.155436223562,4339.554959962961
136,4312.42056022444,4323.155436223562,4342.97691342941,4364.801506842145
137,4355.499790413857,4355.499790413857,4364.801506842145,4380.462418510813
138,4383.069221156988,4383.069221156988,4384.514298172006,4399.27467595864
139,4428.580961981591,4428.580961981591,4458.666339957874,4474.869258049227
140,4444.857614701152,4458.666339957874,4487.140949782438,4503.734372513215
141,4463.42774231827,4487.140949782438,4503.734372513215,4518.630198743479
142,4482.23283554864,4487.829081999342,4518.630198743479,4533.216631191711
143,4492.918812739884,4495.227213458665,4533.216631191711,4537.158075460527
144,4512.07740379559,4512.07740379559,4537.158075460527,4557.853263567268
145,4547.180880113857,4547.180880113857,4557.853263567268,4571.824898378604
146,4588.503059372268,4588.503059372268,4612.916697388553,4633.973353730233
147,4608.7586546027,4612.916697388553,4633.973353730233,4645.925041823111
148,4634.8222684044995,4634.8222684044995,4650.599374364759,4663.220379970387
149,4646.556007922995,4650.599374364759,4666.629889122474,4682.947935651301
150,4684.700450010047,4684.700450010047,4689.8567716166735,4705.11186272676
151,4726.175481239834,4726.175481239834,4746.492609244736,4766.362234311754
152,4752.262805017708,4752.262805017708,4766.362234311754,4781.702433020571
153,4768.299996499347,4768.299996499347,4781.702433020571,4797.182172376308
154,4793.004698915502,4793.004698915502,4797.284753618148,4817.441243134264
155,4806.25556951297,4806.25556951297,4817.441243134264,4831.2795776336525
156,4842.346328974548,4842.346328974548,4877.119499233862,4897.750869612381
157,4874.415735871585,4877.119499233862,4897.750869612381,4913.6582812958395
158,4884.824288212355,4884.824288212355,4913.6582812958395,4928.833655719022
159,4926.689136559795,4926.689136559795,4937.427004403951,4949.878433868875
160,4975.112308607907,4975.112308607907,4975.565856464375,4994.428369061645
161,5004.055045135245,5004.055045135245,5015.02889867893,5035.424993715129
162,5058.0952618610845,5058.0952618610845,5065.107163660604,5082.782402080242
163,5095.825374583702,5095.825374583702,5099.098317522126,5115.567703777324
164,5136.357390249797,5136.357390249797,5144.247052198251,5156.906548618652
165,5152.576397100437,5152.576397100437,5156.906548618652,5170.41609491269
166,5166.003572967749,5166.003572967749,5177.320092879224,5192.9267082572205
167,5214.326545542879,5214.326545542879,5215.394096005199,5231.77657133976
168,5245.449598328613,5245.449598328613,5251.323612040432,5269.943589233331
169,5296.549689963806,5296.549689963806,5304.713243636112,5317.467487065478
170,5340.944397845354,5340.944397845354,5345.696555755995,5362.675819427953
171,5360.0705687717345,5360.0705687717345,5368.180937980858,5386.056842766629
172,5407.900151790034,5407.900151790034,5418.165943251721,5434.7194240831495
173,5424.759723769394,5424.759723769394,5434.7194240831495,5449.2482561263705
174,5444.276421695716,5444.276421695716,5454.198550062522,5465.290522475051
175,5482.842943143505,5482.842943143505,5490.863868904863,5509.210867097114
176,5515.0387455712425,5515.0387455712425,5528.199088674045,5542.676091155387
177,5555.738840438525,5555.738840438525,5585.547564239978,5597.592478115529
178,5577.703032644826,5585.547564239978,5597.592478115529,5618.765584812107
179,5606.020488227957,5606.020488227957,5618.765584812107,5631.976930981068
180,5654.858838289752,5654.858838289752,5664.526906879678,5678.392543653448
181,5700.285827826649,5700.285827826649,5720.443211983136,5732.957392647789
182,5713.862096193307,5720.443211983136,5732.957392647789,5748.980243932099
183,5751.0574251765665,5751.0574251765665,5755.8228097461615,5770.9998432205475
184,5770.214034566229,5770.214034566229,5773.010592236424,5791.363635843185
185,5805.090019260706,5805.090019260706,5829.322749969075,5844.5153690189745
186,5829.506190658068,5829.506190658068,5844.5153690189745,5863.833521373036
187,5839.026951494799,5839.026951494799,5863.833521373036,5874.487062684268
188,5884.169862579763,5884.169862579763,5886.240220099469,5907.576099313786
189,5921.8223213768,5921.8223213768,5960.783129682054,5978.486963913634
190,5974.300474181754,5974.300474181754,5984.579469862919,6001.250507960182
191,6025.545013758531,6025.545013758531,6031.694437506994,6054.478974316391
192,6069.508446981627,6069.508446981627,6074.024940824058,6087.327679121092
193,6079.1810870357285,6079.1810870357285,6100.2277148810035,6113.842989022273
194,6090.16527487194,6100.2277148810035,6113.842989022273,6133.985837339072
195,6129.573575903967,6129.573575903967,6133.985837339072,6143.143865346487
196,6167.754380404225,6167.754380404225,6203.123331265876,6216.466887175371
197,6203.977158430829,6203.977158430829,6216.466887175371,6233.915034193116
198,6223.005358078753,6223.005358078753,6233.915034193116,6252.923342987574
199,6236.050523576811,6236.050523576811,6253.723249122007,6269.5969318051975
200,6252.680971835626,6253.723249122007,6269.5969318051975,6282.95442871825
201,6279.360886751732,6279.360886751732,6286.060821515684,6303.228546347321
202,6321.175366706992,6321.175366706992,6329.43650869987,6343.132174437515
203,6351.827349500262,6351.827349500262,6375.607108223762,6395.901547217759
204,6374.433345373215,6375.607108223762,6413.691441667825,6436.416828967102
205,6388.825444545447,6413.691441667825,6436.416828967102,6454.093999901001
206,6437.446831585091,6437.446831585091,6454.093999901001,6467.924821076766
207,6466.569534211703,6466.569534211703,6467.924821076766,6477.629920994828
208,6510.885016473698,6510.885016473698,6518.420502458514,6534.728910753701
209,6539.211182119024,6539.211182119024,6550.20467479913,6562.022694256464
210,6587.72800284466,6587.72800284466,6588.474895468031,6607.136673187094
211,6600.317553177307,6600.317553177307,6607.136673187094,6628.516553014119
212,6619.896238429413,6619.896238429413,6628.516553014119,6648.69323914859
213,6651.726737808629,6651.726737808629,6661.042897647608,6672.952460418832
214,6693.198343998077,6693.198343998077,6694.021190033634,6709.524658429762
215,6728.0233578588,6728.0233578588,6737.7625126155535,6750.705155315808
216,6750.7598449531415,6750.7598449531415,6760.777275968894,6778.455125212379
217,6763.295986931649,6763.295986931649,6778.455125212379,6796.124894852927
218,6808.531287703851,6808.531287703851,6838.030075754631,6849.239995932357
219,6848.760881580048,6848.760881580048,6849.557050922197,6870.016948594324
220,6891.924548279296,6891.924548279296,6910.438658953226,6927.874374311507
221,6926.568537588006,6926.568537588006,6930.906093951825,6944.515974922405
222,6962.312163184191,6962.312163184191,6981.641079414168,6997.914999340448
223,7006.664819043439,7006.664819043439,7007.61533534053,7026.179211690601
224,7052.223858101735,7052.223858101735,7081.998077362398,7100.584485407066
225,7097.687504616328,7097.687504616328,7103.988945774233,7119.889933613732
226,7113.74795139789,7113.74795139789,7119.889933613732,7135.611211247056
227,7151.854807890351,7151.854807890351,7159.364434117344,7175.541991543715
228,7193.704611915625,7193.704611915625,7209.8747623925865,7227.618113922688
229,7240.146473125447,7240.146473125447,7242.633714566211,7256.346787421359
230,7266.306357639472,7266.306357639472,7291.647120593394,7309.668226976246
231,7287.443644402799,7291.647120593394,7309.668226976246,7327.118860020566
232,7310.698222147233,7310.698222147233,7327.118860020566,7344.54865109006
233,7334.256325624569,7334.256325624569,7344.54865109006,7359.120918316606
234,7350.688780280806,7350.688780280806,7359.120918316606,7371.23910405935
235,7370.672071884632,7370.672071884632,7371.977518345504,7387.021511018596
236,7424.771013535309,7424.771013535309,7427.373441863538,7437.647171346251
237,7467.768837559392,7467.768837559392,7471.022663240619,7486.756484844188
238,7515.407207624899,7515.407207624899,7545.081581912788,7558.656181018982
239,7540.83004430649,7545.081581912788,7558.656181018982,7574.090714456103
240,7562.938022984668,7562.938022984668,7574.090714456103,7590.920660783269
241,7582.564107666787,7582.564107666787,7590.920660783269,7606.868367479729
242,7592.000401999952,7592.000401999952,7606.868367479729,7618.900388449475
243,7641.805945545614,7641.805945545614,7641.814084947539,7657.161346921798
244,7654.648901202058,7654.648901202058,7661.1425917951,7676.706982011549
245,7696.355220726588,7696.355220726588,7698.429132992312,7711.63147627208
246,7752.135094989919,7752.135094989919,7754.530904592597,7770.117046041393
247,7782.984457431719,7782.984457431719,7785.680082749979,7807.980194143705
248,7795.775260324545,7795.775260324545,7807.980194143705,7824.2123770138915
249,7807.711817880793,7807.711817880793,7824.2123770138915,7841.046225334361
250,7842.4505470029035,7842.4505470029035,7860.678785738025,7873.48186171465
251,7889.416748989545,7889.416748989545,7890.678619235659,7901.819195198007
252,7915.65971124518,7915.65971124518,7939.056456521832,7951.806186673296
253,7934.428515611041,7939.056456521832,7951.806186673296,7966.756853351193
254,7953.00851457667,7953.00851457667,7966.756853351193,7986.100460610913
255,8002.919072518966,8002.919072518966,8015.228397191281,8026.439063092255
256,8058.336421521694,8058.336421521694,8060.18910303525,8076.342735571693
