# file created by code in harbour_fns_1896438.jl
# file created on 2026-03-09 at 15:39:49
# parameter: seed = 1896457
# parameter: T = 30000.0
# parameter: lower_interarrival = 7.8
# parameter: upper_interarrival = 55.8
# parameter: mean_process_times = [11.0, 16.0]
# parameter: max_queue = [9223372036854775807, 4]
# parameter: time_units = hours
id,arrival_time,start_service_times,start_service_times,completion_time
1,0.0,0.0,18.51507449995485,36.85612813425526
2,32.381873855296654,32.381873855296654,44.938572245328416,61.04985351632892
3,72.19988549379426,72.19988549379426,94.19306598939966,109.99107959919542
4,116.23997472167169,116.23997472167169,116.42171060554902,132.21862927757593
5,166.8740322212347,166.8740322212347,239.10377064981157,259.4588753601216
6,178.43785272419868,239.10377064981157,259.4588753601216,272.068050364157
7,211.14262601264068,240.22250590834787,272.068050364157,286.5494830361065
8,239.53775774579933,254.72357921078344,286.5494830361065,299.7166064920105
9,281.78072894369836,281.78072894369836,299.7166064920105,320.4092063455205
10,313.7487961254477,313.7487961254477,327.72721666305796,342.13556281368216
11,345.18052272509226,345.18052272509226,352.60043451102615,365.91234372947434
12,364.8176590338163,364.8176590338163,367.7738128881933,383.52467965622753
13,379.1787757502188,379.1787757502188,395.6066627286081,409.98687153740445
14,406.13074229291317,406.13074229291317,414.3025029314228,434.9603062225611
15,458.59697476987094,458.59697476987094,464.1113878882429,485.346340301839
16,501.43545171607707,501.43545171607707,539.8784733352702,549.4140790141021
17,535.2881347820943,539.8784733352702,559.3300958967043,575.4787429947852
18,561.499701654505,561.499701654505,582.6592526120239,598.5041278445912
19,591.4968070868844,591.4968070868844,600.8167475008818,617.4613244517274
20,618.6858113094883,618.6858113094883,624.5409431801476,640.2277264859113
21,666.0882561531158,666.0882561531158,675.4641709458808,692.7865764433276
22,717.3733762605178,717.3733762605178,742.5638619016694,754.8502835401353
23,732.8901187117207,742.5638619016694,754.8502835401353,769.5653677297423
24,774.7490116018657,774.7490116018657,776.210206590966,793.881580880157
25,826.2563233152031,826.2563233152031,839.5281862771321,858.9961559308376
26,836.554169102408,839.5281862771321,858.9961559308376,878.317989185962
27,853.7850219908972,853.7850219908972,878.317989185962,894.6000838346499
28,907.783417050595,907.783417050595,953.282712930198,969.1037773644332
29,925.0695904226773,953.282712930198,975.0378444769218,991.7665262467585
30,939.6756347160739,975.0378444769218,991.7665262467585,1009.5851821946875
31,962.8651423154427,987.5547433400437,1009.5851821946875,1022.657174111358
32,980.501568281492,1009.417082826721,1033.337455771167,1048.0160833766265
33,1011.6399388512411,1033.337455771167,1048.0160833766265,1063.3584012979693
34,1031.5646717955842,1033.6827086467977,1063.3584012979693,1082.961269904315
35,1066.14306051086,1066.14306051086,1082.961269904315,1097.1247223460919
36,1100.0593674582633,1100.0593674582633,1130.9005556632953,1145.9522326126478
37,1139.8643760466985,1139.8643760466985,1145.9522326126478,1158.5134180293187
38,1187.6616952443592,1187.6616952443592,1210.7579672259908,1226.493710963078
39,1215.073616669681,1215.073616669681,1226.493710963078,1241.4346119383729
40,1234.8212550319224,1234.8212550319224,1250.972744392901,1259.9057504496284
41,1279.0106079005134,1279.0106079005134,1281.6255010367965,1294.3905928709146
42,1294.316478568464,1294.316478568464,1296.6666318047826,1314.303938057084
43,1340.2511359500495,1340.2511359500495,1373.0586844325,1388.4035564465896
44,1384.4730699109955,1384.4730699109955,1392.9297637136656,1409.2424055539204
45,1410.281083297133,1410.281083297133,1416.518147250614,1432.7358795207192
46,1462.129275111247,1462.129275111247,1496.7487996108546,1512.6263066537213
47,1477.9877947509196,1496.7487996108546,1512.6263066537213,1528.1515916129497
48,1504.9175632602223,1511.2662751034222,1528.1515916129497,1539.5486952951344
49,1558.812458119552,1558.812458119552,1568.034980969158,1588.9377497926992
50,1574.0088665604062,1574.0088665604062,1588.9377497926992,1602.6853641035425
51,1622.3143090190247,1622.3143090190247,1690.901758582516,1713.7269037907886
52,1649.4796106864817,1690.901758582516,1713.7269037907886,1729.39721996292
53,1674.9250232601496,1691.8426959235467,1729.39721996292,1743.4821943573643
54,1718.186469875885,1718.186469875885,1743.4821943573643,1758.8611010749314
55,1756.0946921818843,1756.0946921818843,1758.8611010749314,1773.2605596527903
56,1776.204117022713,1776.204117022713,1776.3696762112422,1789.4117787875903
57,1823.340356048732,1823.340356048732,1828.946096881433,1845.6679740565594
58,1867.4939449476235,1867.4939449476235,1870.4111148900618,1886.758829358768
59,1915.8832258279988,1915.8832258279988,1931.111984556752,1945.0391908248885
60,1957.374139077601,1957.374139077601,1965.8985929588807,1986.538068635584
61,1972.1443031417434,1972.1443031417434,1995.2151797954089,2014.8885868031082
62,2011.0494600458112,2011.0494600458112,2014.8885868031082,2033.4729957102468
63,2057.518853281883,2057.518853281883,2077.886898631116,2091.2765177444803
64,2105.514460482922,2105.514460482922,2115.9260504309036,2137.335770205997
65,2136.8818424793085,2136.8818424793085,2147.1477019316144,2161.755881974438
66,2153.366214841876,2153.366214841876,2183.3539853066804,2196.0255921629837
67,2180.016858900229,2183.3539853066804,2220.1267310111334,2234.686812884097
68,2217.691650747312,2220.1267310111334,2234.686812884097,2253.5255108317665
69,2263.6196510870427,2263.6196510870427,2266.8712309573125,2283.688400664189
70,2303.680755262092,2303.680755262092,2306.450102150811,2325.9260357721428
71,2322.9764824166236,2322.9764824166236,2335.5699962750296,2349.77938753566
72,2373.8246245114224,2373.8246245114224,2375.7194607414485,2387.9084102851907
73,2385.014137641986,2385.014137641986,2393.158775830369,2410.5608694529683
74,2406.2829884327552,2406.2829884327552,2410.5608694529683,2429.8857469196414
75,2446.7031720335353,2446.7031720335353,2452.4433631936695,2461.3316885376857
76,2461.1544527128335,2461.1544527128335,2466.2515982401537,2486.678105794448
77,2494.2776677928246,2494.2776677928246,2501.2132595184016,2516.678564757079
78,2505.140292255841,2505.140292255841,2551.046532853571,2570.8202241293175
79,2545.059812351533,2551.046532853571,2570.8202241293175,2585.651246368085
80,2555.3855171500186,2555.3855171500186,2585.651246368085,2599.6914871013932
81,2577.6534588458194,2577.6534588458194,2599.6914871013932,2617.7136042677676
82,2619.953930679974,2619.953930679974,2623.536025092551,2637.178333976116
83,2672.0135236343476,2672.0135236343476,2679.495249147603,2696.8048717483434
84,2722.51938316822,2722.51938316822,2724.8319169691263,2746.232952818252
85,2745.312387124122,2745.312387124122,2754.0913553214914,2770.861956236403
86,2787.3111694128024,2787.3111694128024,2788.270220347514,2806.0932917014648
87,2808.169718569513,2808.169718569513,2820.691247031892,2837.4895303613325
88,2823.2791219477895,2823.2791219477895,2837.4895303613325,2854.6201590388905
89,2866.8262116113583,2866.8262116113583,2869.819352573231,2885.377515257349
90,2920.204335619343,2920.204335619343,2933.3445785680456,2950.0702307228694
91,2941.8204986138207,2941.8204986138207,2950.0702307228694,2966.43564429362
92,2989.797957707153,2989.797957707153,2994.624242287336,3013.3464219260873
93,3024.5735673882637,3024.5735673882637,3026.5193852339817,3047.0876121358515
94,3032.492790726651,3032.492790726651,3047.0876121358515,3068.838168557588
95,3055.9064687025048,3055.9064687025048,3068.838168557588,3086.4012269729437
96,3067.6210033673415,3067.6210033673415,3086.4012269729437,3102.801779156862
97,3091.2531612429375,3091.2531612429375,3102.801779156862,3116.6146593084527
98,3102.119689820258,3102.119689820258,3118.1919648724847,3133.7695314525986
99,3149.416089409647,3149.416089409647,3158.1779354857813,3172.562788793746
100,3163.2410494497913,3163.2410494497913,3190.792531295944,3207.1675053349263
101,3206.9855918729663,3206.9855918729663,3208.1099611165514,3222.3407571024322
102,3229.7315167657125,3229.7315167657125,3236.875387348938,3253.96152288472
103,3269.3953779546323,3269.3953779546323,3278.6118572189575,3297.7077311750236
104,3307.3371326699757,3307.3371326699757,3311.3727479503873,3330.375051091299
105,3342.9129436612643,3342.9129436612643,3346.2277403209673,3362.8737595107314
106,3376.094946730558,3376.094946730558,3378.5468307725855,3393.4390170856223
107,3410.08845318313,3410.08845318313,3420.583690253648,3437.7644079904035
108,3444.5852560758776,3444.5852560758776,3462.8272407308223,3480.1973712511244
109,3463.3002110180173,3463.3002110180173,3499.410594773354,3514.5942312355896
110,3507.976212631195,3507.976212631195,3514.5942312355896,3526.2248168514866
111,3552.882265143431,3552.882265143431,3569.3707666672317,3590.4729291316216
112,3591.2524051933337,3591.2524051933337,3594.5330357556118,3608.206412028701
113,3618.255332536106,3618.255332536106,3628.602413087153,3651.9226085461037
114,3631.7780452216166,3631.7780452216166,3651.9226085461037,3670.1005704872814
115,3678.7030760264956,3678.7030760264956,3682.1510644171144,3696.408511840493
116,3697.8942105341034,3697.8942105341034,3702.320660678778,3716.0235256538876
117,3737.49857785859,3737.49857785859,3743.937068751637,3757.9450399417638
118,3790.8894533339044,3790.8894533339044,3798.9279170236214,3814.223121690219
119,3802.134319840865,3802.134319840865,3820.6334306451968,3838.6193667082607
120,3824.3808154707745,3824.3808154707745,3838.6193667082607,3852.4534118910597
121,3849.226742157359,3849.226742157359,3870.3069837341586,3892.291451640162
122,3897.164380265808,3897.164380265808,3907.9250773771346,3924.9879786848023
123,3923.7710902538674,3923.7710902538674,3945.400875332898,3960.476016150628
124,3971.7153987033616,3971.7153987033616,3978.4541803443394,3991.700365013971
125,4015.2337343119957,4015.2337343119957,4018.449850045021,4036.1217515229832
126,4049.678546559842,4049.678546559842,4053.5044120574657,4066.20566509537
127,4092.0652868131547,4092.0652868131547,4100.8592441672945,4119.709341457838
128,4136.582212209307,4136.582212209307,4162.20021190603,4174.945849196848
129,4151.241608139349,4162.20021190603,4181.76614486486,4194.311336041439
130,4181.614757283902,4181.76614486486,4194.311336041439,4208.812080666315
131,4229.599240499097,4229.599240499097,4232.94283437076,4251.8395786719275
132,4278.18204197136,4278.18204197136,4291.000007875872,4304.507143495866
133,4319.164545104304,4319.164545104304,4320.396145908173,4343.638271142326
134,4356.821934138821,4356.821934138821,4366.328114222469,4382.738871948776
135,4401.577606655113,4401.577606655113,4416.310590626427,4434.773971395248
136,4441.608291830099,4441.608291830099,4449.813008720567,4462.506050660509
137,4470.925836839135,4470.925836839135,4486.879447822862,4502.0837700368675
138,4522.288802264028,4522.288802264028,4523.519343917507,4542.028452321354
139,4545.332677886674,4545.332677886674,4551.332667720391,4568.0874903083
140,4561.3139025357195,4561.3139025357195,4573.121826166376,4591.228909733847
141,4616.662316224208,4616.662316224208,4619.174030225266,4634.19094341283
142,4628.7912925638075,4628.7912925638075,4659.75719079974,4678.426589807524
143,4653.59765088062,4659.75719079974,4679.115303922514,4693.277262881903
144,4697.628364208653,4697.628364208653,4698.535733918076,4711.4577195784605
145,4719.396153108849,4719.396153108849,4753.684564324923,4769.6136140131375
146,4740.339611274244,4753.684564324923,4769.6136140131375,4785.07831195348
147,4776.9337633424275,4776.9337633424275,4785.07831195348,4799.588887291221
148,4798.975935605458,4798.975935605458,4799.612583700527,4814.537410185442
149,4825.754352495523,4825.754352495523,4828.01565035736,4842.440733432567
150,4869.264103124663,4869.264103124663,4889.216345543136,4905.379737439184
151,4890.376387481662,4890.376387481662,4905.379737439184,4925.336944638016
152,4913.185931034828,4913.185931034828,4941.359418555809,4956.3025137358445
153,4958.075445644172,4958.075445644172,4967.758654902037,4979.321016738966
154,5009.049509288814,5009.049509288814,5016.020321272003,5025.14009986764
155,5048.6135826332975,5048.6135826332975,5058.769157258226,5073.669039815445
156,5081.048302146458,5081.048302146458,5086.77130257774,5097.204288476558
157,5119.617470839578,5119.617470839578,5140.847464697078,5156.819480416821
158,5137.186193995341,5140.847464697078,5159.363321951234,5174.149356021927
159,5149.660631080551,5159.363321951234,5190.78864345734,5208.288212459773
160,5199.364061757322,5199.364061757322,5208.288212459773,5222.558101029754
161,5226.472101648837,5226.472101648837,5233.612386558129,5246.548871705534
162,5264.329944251975,5264.329944251975,5278.991748778298,5291.8301550056985
163,5280.482749748316,5280.482749748316,5318.09990289087,5334.706999306603
164,5328.005383974902,5328.005383974902,5334.706999306603,5349.692464677283
165,5345.271778003107,5345.271778003107,5351.519094340131,5368.950502789933
166,5359.711886437632,5359.711886437632,5373.882499725986,5390.651199072206
167,5381.628836028545,5381.628836028545,5393.388160704271,5410.614722074171
168,5425.1038732158695,5425.1038732158695,5426.16023147132,5443.7360741079765
169,5441.964367613286,5441.964367613286,5445.096059663935,5460.5725487018535
170,5478.295470394002,5478.295470394002,5490.6857105599565,5509.734355511421
171,5510.08214577777,5510.08214577777,5514.229551816219,5529.128538757948
172,5542.090072351812,5542.090072351812,5588.885824689693,5609.0780897541035
173,5551.658730580618,5588.885824689693,5609.0780897541035,5626.829436888907
174,5588.485449866641,5590.1069908308145,5626.829436888907,5640.637091134857
175,5627.129967578203,5627.129967578203,5640.637091134857,5656.455186151876
176,5681.130741797025,5681.130741797025,5704.203868405511,5721.917780644105
177,5704.947725280498,5704.947725280498,5721.917780644105,5736.129491638584
178,5754.771284288328,5754.771284288328,5757.919187215762,5776.482359220551
179,5798.327103345219,5798.327103345219,5805.443663328697,5821.643734267514
180,5836.630837437114,5836.630837437114,5836.698782353134,5851.758850152336
181,5855.216818145087,5855.216818145087,5864.576414931508,5880.208467842328
182,5863.573478250563,5864.576414931508,5880.208467842328,5903.666113095957
183,5899.918662125397,5899.918662125397,5918.39405422016,5936.1799084206405
184,5912.673289704783,5918.39405422016,5936.1799084206405,5954.225566526859
185,5943.807275359965,5943.807275359965,5954.225566526859,5965.958699288095
186,5983.023345358211,5983.023345358211,5991.069367429306,6010.28325848144
187,6032.529770931959,6032.529770931959,6034.900940811911,6050.392691160774
188,6080.532382538308,6080.532382538308,6082.240546395021,6097.298692134136
189,6121.774502487653,6121.774502487653,6150.956479216899,6162.987441065283
190,6142.2367885377735,6150.956479216899,6162.987441065283,6180.877413150716
191,6182.3203178285985,6182.3203178285985,6183.296446070507,6202.76329377875
192,6203.341722480026,6203.341722480026,6212.925346496635,6232.949538468162
193,6229.060825671925,6229.060825671925,6232.949538468162,6246.5649124818765
194,6259.540875145184,6259.540875145184,6265.67001036978,6280.665905075409
195,6272.713054578258,6272.713054578258,6280.665905075409,6291.835908514847
196,6286.480837424013,6286.480837424013,6291.835908514847,6305.233826614046
197,6294.977047826901,6294.977047826901,6313.8342382012,6332.456999735374
198,6335.839863274334,6335.839863274334,6360.818629086718,6384.670265376831
199,6353.762721896464,6360.818629086718,6384.670265376831,6403.285828651147
200,6393.856946334603,6393.856946334603,6403.285828651147,6422.628136039411
201,6406.771530753076,6406.771530753076,6422.628136039411,6438.027517833254
202,6423.240602976883,6423.240602976883,6442.153965909802,6460.00688628924
203,6452.045424337638,6452.045424337638,6464.770892908333,6481.899311142213
204,6465.903358793067,6465.903358793067,6490.352811655891,6507.216192841181
205,6487.154464828077,6490.352811655891,6507.216192841181,6521.297441499954
206,6525.0630957018275,6525.0630957018275,6542.013011039956,6555.550424254187
207,6566.136681590367,6566.136681590367,6576.337270231666,6591.615246226935
208,6598.452078511883,6598.452078511883,6613.666482462565,6636.333283528487
209,6614.304620233042,6614.304620233042,6636.333283528487,6658.378102984735
210,6662.239322993534,6662.239322993534,6667.115474589161,6680.455365757674
211,6680.453484918026,6680.453484918026,6686.704759473361,6706.111361251609
212,6700.194741626999,6700.194741626999,6711.04957828117,6729.273811702259
213,6720.443484846382,6720.443484846382,6729.273811702259,6744.079726002721
214,6759.192562323916,6759.192562323916,6773.079345225728,6787.315441515031
215,6807.6390330277345,6807.6390330277345,6814.879050003509,6826.711697503695
216,6816.729388816431,6816.729388816431,6829.331982852306,6843.413345056211
217,6857.528550596793,6857.528550596793,6877.17014426395,6894.479387773422
218,6873.878197159012,6877.17014426395,6894.479387773422,6909.733672210766
219,6904.538485259114,6904.538485259114,6919.391128936879,6935.017681447673
220,6914.7142256894185,6919.391128936879,6935.017681447673,6948.678017781857
221,6966.648516246398,6966.648516246398,7003.89976764464,7011.641944530879
222,7015.891092157133,7015.891092157133,7025.366154936329,7037.31118755882
223,7048.941162194005,7048.941162194005,7058.513274233133,7076.043156273556
224,7073.7017795004185,7073.7017795004185,7076.043156273556,7093.289837399122
225,7095.380050756651,7095.380050756651,7101.95054873566,7113.581187198532
226,7146.465151059991,7146.465151059991,7156.396727631342,7170.294354671105
227,7199.93082475431,7199.93082475431,7206.855869756792,7222.521072405906
228,7233.783988676307,7233.783988676307,7267.152080499226,7284.072832410421
229,7257.704524622105,7267.152080499226,7290.394114695382,7306.320105950155
230,7295.281663427879,7295.281663427879,7306.320105950155,7318.229798680682
231,7321.081780928228,7321.081780928228,7326.702964197107,7343.608720932518
232,7364.643753085634,7364.643753085634,7367.717771916328,7384.717257676249
233,7407.39133220272,7407.39133220272,7419.447541970691,7438.493994833481
234,7424.434714111912,7424.434714111912,7438.493994833481,7456.039899738656
235,7479.31259301447,7479.31259301447,7504.583912223912,7523.08488677021
236,7533.137264493399,7533.137264493399,7537.215086742782,7553.509505000815
237,7575.006485748608,7575.006485748608,7606.372319338767,7622.289697064635
238,7596.295518873277,7606.372319338767,7622.289697064635,7637.908953695969
239,7625.943656559854,7625.943656559854,7637.908953695969,7658.389153621018
240,7646.4810657745975,7646.4810657745975,7668.343046921063,7684.721780809988
241,7695.434826080457,7695.434826080457,7697.898384132817,7711.648408812807
242,7731.696552667776,7731.696552667776,7739.121560401782,7753.6461740362
243,7758.140198259634,7758.140198259634,7766.877205649144,7781.441665650636
244,7770.86642859804,7770.86642859804,7781.441665650636,7795.539162720833
245,7818.215735385981,7818.215735385981,7830.697756829657,7848.497889450685
246,7838.718010924967,7838.718010924967,7867.974943146605,7883.730680307621
247,7866.7277380102005,7867.974943146605,7883.730680307621,7903.116260394948
248,7903.144898014499,7903.144898014499,7939.616187549589,7952.2558525265695
249,7931.79861332629,7939.616187549589,7952.2558525265695,7964.7886722690055
250,7955.00249845559,7955.00249845559,7964.7886722690055,7980.933383323492
251,7981.749268658202,7981.749268658202,8013.533114471969,8028.403460410323
252,8031.498025957,8031.498025957,8045.993187830124,8062.269329985252
253,8060.276424631347,8060.276424631347,8070.997980335256,8085.671194759746
254,8081.11481244875,8081.11481244875,8092.966658194269,8107.3537654939855
255,8132.544776521144,8132.544776521144,8140.272021865289,8161.502502333587
256,8163.572133710986,8163.572133710986,8164.551960553647,8183.209586173178
